1.8232852,9.298836,16.670301,22.762743,26.73668,28.318336,27.797626,25.815302,23.080074,20.085213,17.03353,13.928451,10.687095,7.3394485,4.0586405,1.0556096,-1.4533619,-3.287925,-4.4038424,-4.9526978,-5.2026367,-5.4147286,-5.7609167,-6.306921,-7.0647025,-8.018609,-9.085604,-10.123872,-11.016598,-11.707967,-12.196928,-12.54017,-12.830559,-13.139093,-13.462211,-13.741242,-13.89877,-13.750167,-12.902329,-10.8708515,-7.332471,-2.356475,3.5389616,9.615381,15.105226,19.282932,21.658842,22.163553,21.130833,19.11356,16.627882,14.002848,11.397167,8.838072,6.302781,3.8450358,1.6015966,-0.30915448,-1.8144686,-2.8355832,-3.3693166,-3.5586727,-3.6300325,-3.7961226,-4.1523356,-4.711107,-5.442065,-6.252414,-7.051843,-7.787665,-8.423989,-8.925205,-9.276594,-9.530322,-9.762049,-10.015963,-10.306587,-10.586525,-10.748551,-10.6181135,-9.859693,-8.02718,-4.793455,-0.15962584,5.436606,11.172675,16.103516,19.486942,21.001768,20.783085,19.260954,16.968086,14.394219,11.80945,9.232718,6.6112595,3.9832277,1.5223972,-0.56418085,-2.1533911,-3.1892207,-3.7032259,-3.8700547,-3.916845,-4.009565,-4.245928,-4.6671004,-5.260304,-5.966555,-6.7111506,-7.450034,-8.14473,-8.748608,-9.238097,-9.614775,-9.8996,-10.133435,-10.377692,-10.657578,-10.913963,-10.984908,-10.573378,-9.2722,-6.6637273,-2.5392084,2.8914275,8.955695,14.651641,19.009697,21.476824,22.041887,21.084341,19.12552,16.6617,14.039632,11.35575,8.586038,5.788487,3.1140795,0.7361675,-1.2378505,-2.740106,-3.7019506,-4.153209,-4.2450953,-4.214268,-4.307872,-4.656248,-5.2452946,-5.972777,-6.744199,-7.5154576,-8.253748,-8.909117,-9.430524,-9.816001,-10.1072645,-10.364125,-10.635855,-10.926726,-11.216862,-11.448964,-11.417932,-10.708397,-8.856301,-5.560605,-0.80889106,5.0106087,11.127556,16.581356,20.51428,22.45714,22.467972,21.02232,18.741877,16.150171,13.531948,10.927596,8.271118,5.544762,2.83531,0.3364704,-1.7046132,-3.1291351,-3.9527407,-4.322621,-4.448628,-4.5462976,-4.776871,-5.2236686,-5.892498,-6.705341,-7.5499973,-8.356189,-9.092071,-9.737708,-10.2862835,-10.748308,-11.132102,-11.436145,-11.684762,-11.922551,-12.151959,-12.226492,-11.801796,-10.461918,-7.8317223,-3.67905,1.8770344,8.260486,14.522828,19.625566,22.835112,23.947002,23.267235,21.418041,19.023077,16.455217,13.845541,11.216488,8.54371,5.8076587,3.0740726,0.5157895,-1.6382257,-3.210276,-4.1792746,-4.6765556,-4.899699,-5.045718,-5.300575,-5.7633,-6.3911204,-7.129203,-7.957668,-8.8188505,-9.623171,-10.289852,-10.785834,-11.122105,-11.349099,-11.54451,-11.776589,-12.077278,-12.363472,-12.405041,-11.849413,-10.281931,-7.3512435,-2.9131944,2.8029337,9.133181,15.103089,19.746088,22.452385,23.11489,22.09647,20.03363,17.530193,14.955007,12.406649,9.81488,7.1069794,4.3421717,1.7257288,-0.54456407,-2.3350017,-3.527545,-4.125413,-4.3114233,-4.334087,-4.4246173,-4.7158933,-5.207481,-5.8485384,-6.5975156,-7.4111996,-8.207796,-8.890316,-9.416426,-9.802663,-10.081618,-10.300885,-10.529033,-10.803697,-11.106753,-11.331412,-11.227109,-10.448857,-8.614543,-5.394976,-0.74947965,4.9143195,10.8051405,15.971289,19.59425,21.2761,21.115852,19.557793,17.205647,14.580101,11.953346,9.386174,6.8420005,4.313693,1.8985316,-0.23870248,-1.9354608,-3.077332,-3.6852043,-3.9178107,-3.9632983,-3.9931762,-4.140623,-4.47296,-4.9884095,-5.643584,-6.3784413,-7.1237535,-7.8248653,-8.436464,-8.925686,-9.298241,-9.589749,-9.84916,-10.129272,-10.446729,-10.737031,-10.832671,-10.426363,-9.059268,-6.3196516,-2.1135287,3.2246854,8.961135,14.169787,18.027197,20.06694,20.300453,19.121422,17.113224,14.82505,12.555674,10.325916,8.041309,5.651599,3.2223642,0.9490155,-0.9371386,-2.2893314,-3.1069205,-3.51915,-3.680011,-3.7289894,-3.8252578,-4.1148195,-4.633429,-5.315599,-6.0800414,-6.853042,-7.5819116,-8.200096,-8.650185,-8.961924,-9.207469,-9.459332,-9.766411,-10.12057,-10.462247,-10.647013,-10.384957,-9.291377,-7.0288315,-3.4471436,1.2827026,6.610662,11.708118,15.721864,18.099188,18.76703,18.053295,16.481405,14.560361,12.632198,10.795505,8.93746,6.9258585,4.771382,2.626572,0.6944911,-0.88615733,-2.0448325,-2.735321,-3.0243874,-3.136051,-3.2979982,-3.6186783,-4.1209025,-4.772953,-5.494942,-6.220303,-6.92687,-7.6011353,-8.200828,-8.682509,-9.070186,-9.411614,-9.726302,-10.010813,-10.25221,-10.443713,-10.45922,-9.984265,-8.618853,-6.022747,-2.1421924,2.6487796,7.6657643,12.149186,15.416318,17.065542,17.166777,16.155367,14.594054,12.948493,11.423876,9.985344,8.478132,6.7467685,4.7741733,2.7567444,0.9615998,-0.45472562,-1.4601204,-2.1028674,-2.475469,-2.7098339,-2.967388,-3.3580692,-3.9160469,-4.637418,-5.4684687,-6.307797,-7.0643296,-7.698071,-8.203679,-8.601264,-8.939668,-9.255654,-9.556871,-9.844612,-10.124961,-10.339685,-10.304744,-9.713992,-8.166591,-5.321053,-1.1176924,4.0698247,9.473699,14.139861,17.257927,18.522987,18.171288,16.755348,14.921972,13.137344,11.496004,9.87298,8.148227,6.248926,4.188961,2.1232665,0.30922788,-1.0325758,-1.8665268,-2.3020473,-2.4910736,-2.6252005,-2.884729,-3.3509433,-4.0017138,-4.7829666,-5.6414976,-6.497473,-7.2836304,-7.972902,-8.540934,-8.994481,-9.381544,-9.730317,-10.051356,-10.35726,-10.652102,-10.879921,-10.793468,-9.973818,-8.022308,-4.74995,-0.31389606
3.1541228,9.491288,15.215791,19.427216,21.684536,22.08317,21.112572,19.369638,17.329037,15.229071,13.043236,10.656689,8.051774,5.3044453,2.6084816,0.2604587,-1.5188974,-2.685211,-3.3548677,-3.7490263,-4.071192,-4.4519053,-4.9710264,-5.6507583,-6.4700766,-7.3852744,-8.35068,-9.320203,-10.215436,-10.963818,-11.547426,-11.993066,-12.348342,-12.661438,-12.982214,-13.324794,-13.559762,-13.363636,-12.293598,-9.896952,-5.8959045,-0.4022897,6.017267,12.420849,17.788969,21.416182,23.09139,23.093897,21.952782,20.170916,18.152752,16.066795,13.839479,11.361014,8.571853,5.593533,2.7383468,0.30157492,-1.5636954,-2.8624482,-3.652433,-4.0580955,-4.344138,-4.7411084,-5.336906,-6.116487,-7.00675,-7.9337707,-8.844797,-9.723315,-10.541538,-11.243397,-11.790703,-12.164629,-12.406006,-12.614373,-12.867928,-13.169536,-13.363466,-13.0835085,-11.850502,-9.222016,-4.9799175,0.68358827,7.123239,13.380922,18.458916,21.663097,22.865353,22.416618,20.866978,18.742498,16.388737,13.943541,11.392206,8.684356,5.876763,3.1575775,0.7641903,-1.1328998,-2.469514,-3.2757573,-3.692535,-3.9362838,-4.215106,-4.6499314,-5.270385,-6.0427284,-6.869328,-7.6647205,-8.417252,-9.138039,-9.812755,-10.405037,-10.8786745,-11.229465,-11.51064,-11.801776,-12.151766,-12.524856,-12.732385,-12.397705,-11.025391,-8.191477,-3.7467716,2.0364113,8.452733,14.547479,19.376204,22.295496,23.18363,22.399014,20.528553,18.12868,15.565871,12.956924,10.249132,7.4090433,4.5396104,1.8559785,-0.41539824,-2.1094363,-3.1564672,-3.635243,-3.773834,-3.857494,-4.104153,-4.5859327,-5.272918,-6.1079893,-7.019977,-7.94462,-8.812228,-9.549315,-10.143219,-10.643912,-11.108329,-11.567651,-12.022484,-12.462119,-12.884445,-13.232913,-13.289762,-12.675389,-10.916863,-7.594417,-2.587979,3.7538688,10.5785675,16.742216,21.265583,23.674112,24.077137,23.004707,21.08249,18.764353,16.280815,13.67582,10.873475,7.845767,4.718078,1.752659,-0.73902667,-2.5222456,-3.546483,-3.97005,-4.064305,-4.125043,-4.3941417,-4.9761915,-5.829667,-6.820778,-7.8183136,-8.741527,-9.559861,-10.293132,-10.95095,-11.508675,-11.958796,-12.327186,-12.664355,-13.013369,-13.370581,-13.613928,-13.4480505,-12.466971,-10.232237,-6.4141045,-0.99521315,5.6039634,12.502191,18.560787,22.82024,24.897654,25.008648,23.690937,21.5508,19.054895,16.423744,13.681098,10.792896,7.7622457,4.664233,1.7166628,-0.7898401,-2.6817381,-3.9322069,-4.612267,-4.918855,-5.1394963,-5.4886694,-6.0432916,-6.79704,-7.6958666,-8.672649,-9.659605,-10.577639,-11.372894,-12.03594,-12.591339,-13.078065,-13.5036125,-13.866781,-14.189031,-14.460769,-14.570708,-14.233287,-12.9762,-10.282231,-5.8548827,0.18020168,7.2252717,14.271933,20.205868,24.23086,26.091482,26.030127,24.574213,22.309969,19.709627,17.017908,14.240986,11.284416,8.15364,5.0024776,2.066093,-0.43012783,-2.3384676,-3.6219323,-4.3897448,-4.846111,-5.192834,-5.5773144,-6.1186757,-6.889007,-7.816347,-8.778702,-9.711516,-10.55791,-11.282214,-11.87812,-12.357153,-12.76081,-13.116589,-13.449873,-13.799315,-14.130859,-14.247081,-13.762357,-12.194866,-9.128955,-4.3831663,1.8211021,8.808559,15.566009,21.00749,24.374893,25.51036,24.809713,22.9261,20.44295,17.705172,14.795759,11.706637,8.4914875,5.265768,2.2200365,-0.4154911,-2.445886,-3.7713187,-4.4350567,-4.6396422,-4.705883,-4.898989,-5.3234677,-5.9717813,-6.756038,-7.5670614,-8.368995,-9.177671,-9.952783,-10.610544,-11.117546,-11.500793,-11.807756,-12.098077,-12.442121,-12.864861,-13.241635,-13.276802,-12.565367,-10.633462,-7.109674,-1.9674858,4.371948,11.068006,17.079386,21.504908,23.86767,24.209913,22.962475,20.728075,18.055935,15.260339,12.429496,9.553171,6.6395645,3.786565,1.1454074,-1.1020397,-2.7425447,-3.691332,-4.096473,-4.2146726,-4.3022294,-4.5584874,-5.0412455,-5.6860776,-6.43548,-7.2596693,-8.093486,-8.871475,-9.570599,-10.176907,-10.670852,-11.055252,-11.363529,-11.6327,-11.909562,-12.212304,-12.380699,-12.026353,-10.655972,-7.854675,-3.5006025,2.1014025,8.228406,13.901875,18.219957,20.655115,21.204668,20.294018,18.5006,16.335268,14.101946,11.887262,9.6283455,7.228986,4.7593555,2.4359148,0.42529184,-1.1807164,-2.3300173,-3.0180748,-3.3279867,-3.4488955,-3.5989103,-3.9263933,-4.456702,-5.1158524,-5.809177,-6.51235,-7.2421284,-7.9657474,-8.620133,-9.147007,-9.555028,-9.926347,-10.307999,-10.707207,-11.123716,-11.46543,-11.460837,-10.674763,-8.657036,-5.207401,-0.53129965,4.8082714,10.031114,14.34199,17.112663,18.099491,17.576471,16.129023,14.322006,12.497595,10.762078,9.070674,7.302184,5.376881,3.3589134,1.4346361,-0.1857158,-1.3707736,-2.1088712,-2.464195,-2.5841389,-2.693802,-2.968711,-3.4745395,-4.1766677,-4.989586,-5.868986,-6.768926,-7.595983,-8.284176,-8.838107,-9.308645,-9.728581,-10.096648,-10.433175,-10.7740345,-11.078138,-11.191817,-10.860564,-9.69401,-7.294185,-3.5263345,1.3200707,6.5562816,11.311538,14.832261,16.736082,17.088594,16.297806,14.941546,13.516017,12.235693,11.032405,9.704528,8.090031,6.165613,4.086866,2.13727,0.57007277,-0.5063831,-1.1308124,-1.4418936,-1.611723,-1.7823179,-2.0502665,-2.4966109,-3.1635802,-4.014738,-4.9836335,-5.9855323,-6.920995,-7.714654,-8.302784,-8.666343,-8.872926,-9.005857,-9.102762,-9.197994,-9.295365,-9.268803,-8.867302,-7.7430587,-5.523545,-1.9980383
0.95810765,9.127103,17.577438,24.48566,28.275927,28.293549,24.983202,19.502487,13.192571,7.1375513,1.952055,-2.1790056,-5.2811522,-7.388603,-8.499375,-8.656834,-8.035354,-6.967634,-5.8531504,-5.004181,-4.566501,-4.524139,-4.7915077,-5.2704535,-5.8715835,-6.561522,-7.3406334,-8.222596,-9.202235,-10.185095,-10.938547,-11.060756,-10.042121,-7.3998103,-2.8311589,3.562358,11.028199,18.178661,23.446339,25.660973,24.453442,20.34133,14.448524,8.05853,2.201674,-2.5815074,-6.096657,-8.239604,-9.048194,-8.765333,-7.764761,-6.462296,-5.230178,-4.3375483,-3.8694782,-3.7531102,-3.8772843,-4.153474,-4.5327597,-4.9962573,-5.5715156,-6.326428,-7.2701592,-8.289802,-9.138941,-9.419508,-8.6111765,-6.2126737,-1.9428171,4.063081,11.08389,17.887278,23.028053,25.275862,24.113426,19.947021,13.874904,7.23452,1.1677089,-3.677203,-7.0926642,-9.061244,-9.712137,-9.3363695,-8.308379,-7.009105,-5.7653823,-4.83457,-4.3220406,-4.131786,-4.1462727,-4.3352776,-4.694949,-5.235224,-5.982654,-6.93887,-8.0273905,-9.065593,-9.723047,-9.49082,-7.7774553,-4.107011,1.6118428,8.837082,16.414345,22.810658,26.534023,26.73507,23.522995,17.831928,11.039187,4.4460683,-1.116408,-5.291445,-7.9971213,-9.321236,-9.492023,-8.844696,-7.747448,-6.5347548,-5.5048604,-4.8518014,-4.5955086,-4.6255994,-4.785418,-5.003108,-5.35178,-5.9464474,-6.8599544,-8.084943,-9.458854,-10.648241,-11.147602,-10.30335,-7.5266747,-2.5343595,4.436183,12.45821,20.01566,25.403675,27.372305,25.605497,20.774204,14.219407,7.3202662,1.0606632,-4.006275,-7.6580434,-9.855872,-10.648111,-10.189652,-8.824586,-7.0740314,-5.4447103,-4.260989,-3.6459415,-3.5440075,-3.7752717,-4.1907144,-4.7652984,-5.521936,-6.4774985,-7.63369,-8.895851,-9.980204,-10.419687,-9.632666,-7.030937,-2.26634,4.483523,12.335188,19.783373,25.179543,27.35243,25.990711,21.660143,15.512634,8.830103,2.6660755,-2.3519835,-6.0464296,-8.487992,-9.802346,-10.161928,-9.7826605,-8.917233,-7.8720684,-6.956815,-6.3935356,-6.2529597,-6.477881,-6.9496636,-7.560846,-8.253569,-9.016054,-9.865715,-10.768428,-11.542579,-11.777379,-10.812166,-7.9459357,-2.782903,4.5086226,13.009997,21.114399,27.081308,29.695599,28.619413,24.443611,18.386036,11.765143,5.6256347,0.5698423,-3.2538135,-5.9549656,-7.6425943,-8.3647785,-8.23838,-7.5025125,-6.4924364,-5.5749693,-5.027833,-4.966616,-5.326414,-5.924675,-6.6261215,-7.4293737,-8.396351,-9.566375,-10.907259,-12.212701,-13.027576,-12.744829,-10.750279,-6.5491433,-0.017683385,8.256363,16.89046,24.099266,28.34511,28.865402,25.884365,20.506535,14.151095,7.945055,2.5471563,-1.8169215,-5.1165886,-7.319205,-8.400024,-8.444625,-7.717805,-6.564729,-5.3707147,-4.4950385,-4.1028714,-4.1552696,-4.5068974,-5.0002747,-5.5630336,-6.2222304,-7.021306,-7.9690657,-9.002707,-9.942679,-10.513861,-10.34273,-8.973173,-6.0382075,-1.4511842,4.4704747,10.951524,16.88034,21.06369,22.579565,21.162354,17.270672,11.848572,6.0338855,0.8099597,-3.2502093,-5.979793,-7.4469852,-7.825925,-7.3830676,-6.4558573,-5.3991323,-4.496397,-3.87132,-3.5177786,-3.3915026,-3.4509523,-3.625224,-3.856096,-4.1724706,-4.630995,-5.2432837,-5.956848,-6.6686015,-7.167915,-7.1035843,-6.060358,-3.602031,0.53008175,6.098584,12.242962,17.63111,20.855719,20.963371,17.896582,12.512457,6.1257324,-0.011709055,-5.003866,-8.378664,-10.005558,-10.060914,-8.989297,-7.317655,-5.519066,-3.9707153,-2.8750231,-2.2389565,-1.9490871,-1.8772161,-1.978821,-2.2756934,-2.7967453,-3.5821695,-4.645677,-5.8755026,-7.012923,-7.715422,-7.5554714,-6.0221424,-2.6761065,2.607436,9.413552,16.635988,22.67946,26.037863,25.851515,22.212587,16.07654,8.830804,1.7675409,-4.2111554,-8.603115,-11.235607,-12.174766,-11.737187,-10.464635,-8.904235,-7.4626546,-6.3927903,-5.7919292,-5.623305,-5.77772,-6.1227236,-6.535768,-6.9795823,-7.490717,-8.080094,-8.721902,-9.303983,-9.496511,-8.715593,-6.2667246,-1.6344126,5.175667,13.4170475,21.632364,27.953722,30.794827,29.526094,24.61641,17.346079,9.264893,1.7060242,-4.4666476,-8.895714,-11.592311,-12.753803,-12.655123,-11.645875,-10.135007,-8.544605,-7.234308,-6.3931837,-6.0314507,-6.035578,-6.2778316,-6.712292,-7.3332863,-8.159782,-9.208859,-10.362961,-11.274701,-11.364021,-9.917468,-6.258604,-0.0545906,8.29933,17.539284,25.780602,31.12564,32.366528,29.425383,23.298,15.563012,7.783329,1.036942,-4.2389684,-8.021988,-10.411374,-11.520106,-11.49154,-10.588269,-9.205795,-7.7782497,-6.6789565,-6.105516,-6.048198,-6.378896,-6.9338617,-7.6214557,-8.466585,-9.512955,-10.687842,-11.706037,-12.117389,-11.333621,-8.645425,-3.536872,3.8695326,12.601947,21.031515,27.361044,30.248161,29.282785,24.987734,18.556313,11.445885,4.8494525,-0.5953273,-4.7261815,-7.614395,-9.345673,-9.996845,-9.7209835,-8.790096,-7.5671415,-6.413242,-5.5998755,-5.24071,-5.316881,-5.7507195,-6.448692,-7.354936,-8.451292,-9.695315,-10.935291,-11.845875,-11.937044,-10.579851,-7.1407003,-1.3459896,6.420582,15.009451,22.671696,27.695015,29.027794,26.608112,21.32986,14.597694,7.7867956,1.8194826,-2.9388769,-6.463012,-8.823114,-10.05814,-10.218632,-9.484819,-8.195597,-6.7701144,-5.57219,-4.8028693,-4.484554,-4.54711,-4.9145713,-5.4968705,-6.2110734,-7.0524483,-8.042576,-9.102942,-9.979293,-10.237456,-9.350397,-6.816287,-2.3251936
-2.3968947,-4.6192904,-6.0593176,-6.7080245,-6.764179,-6.5380898,-6.338559,-6.362121,-6.6793537,-7.2279186,-7.858182,-8.4428835,-8.955747,-9.472823,-10.083957,-10.806647,-11.51432,-11.9149275,-11.552173,-9.874246,-6.5047526,-1.4746733,4.7144566,11.167977,16.795073,20.593943,22.023684,21.17679,18.629395,15.141226,11.361179,7.6540527,4.1467643,0.9021908,-1.9371351,-4.124994,-5.4978294,-6.1067395,-6.1518807,-5.9057465,-5.631928,-5.5015926,-5.570163,-5.830484,-6.234549,-6.6985264,-7.165515,-7.636335,-8.176397,-8.863282,-9.669668,-10.400876,-10.667931,-9.930932,-7.698161,-3.773029,1.6472433,7.916067,13.946318,18.598824,21.122555,21.311472,19.471577,16.251928,12.36321,8.305403,4.390924,0.87827706,-2.0500238,-4.2721415,-5.7165284,-6.3858385,-6.404941,-6.050673,-5.6516604,-5.4748697,-5.6070957,-5.959765,-6.3917627,-6.8027997,-7.2086754,-7.673904,-8.260209,-9.021104,-9.902562,-10.683545,-10.953431,-10.158898,-7.745462,-3.4431105,2.4229257,9.0206375,15.262743,20.01541,22.49839,22.575945,20.663462,17.462233,13.632096,9.5736885,5.5582595,1.85672,-1.3255361,-3.8409812,-5.5567403,-6.424769,-6.5729985,-6.2883716,-5.8949423,-5.657419,-5.736628,-6.1323957,-6.7210293,-7.35998,-7.953613,-8.514264,-9.130986,-9.873103,-10.714291,-11.465051,-11.73493,-10.96556,-8.620845,-4.4535227,1.3276151,8.00933,14.469066,19.507648,22.288984,22.606415,20.840424,17.687037,13.874567,9.947061,6.1667304,2.629111,-0.58619976,-3.331014,-5.364791,-6.533957,-6.9049582,-6.7167206,-6.316516,-6.0314193,-6.061029,-6.4228516,-6.9727774,-7.552584,-8.097246,-8.63846,-9.247675,-9.966015,-10.743591,-11.391438,-11.575767,-10.8314705,-8.632098,-4.62364,1.0898565,7.8217063,14.400217,19.584778,22.543037,23.029522,21.375673,18.319918,14.602778,10.703937,6.888474,3.2773116,-0.039137874,-2.8989532,-5.092643,-6.450466,-6.9792104,-6.9189186,-6.624139,-6.3964,-6.406649,-6.6972175,-7.199091,-7.7928596,-8.384105,-8.961469,-9.6015215,-10.3481455,-11.128253,-11.726045,-11.746466,-10.690942,-8.107231,-3.8020847,2.026987,8.76803,15.330324,20.484055,23.415567,23.898878,22.283405,19.269773,15.566488,11.714805,7.9829926,4.425252,1.0707277,-1.9763174,-4.5110483,-6.325481,-7.339569,-7.659333,-7.561548,-7.3468504,-7.2414565,-7.3653126,-7.7210355,-8.234391,-8.789102,-9.317978,-9.861245,-10.493994,-11.225737,-11.935608,-12.32046,-11.872068,-10.0070915,-6.3534784,-0.9594736,5.62573,12.4021015,18.195297,22.021023,23.398586,22.467964,19.834766,16.249647,12.301965,8.35739,4.603386,1.1041211,-2.0231094,-4.5344553,-6.2015343,-6.9442925,-6.900494,-6.425137,-5.9268723,-5.682513,-5.7778025,-6.1343107,-6.603267,-7.071513,-7.5198298,-8.001459,-8.56818,-9.251841,-10.030278,-10.731381,-10.967813,-10.189908,-7.909125,-3.9238887,1.573662,7.928995,14.078588,18.868086,21.501987,21.75305,19.896719,16.562042,12.458709,8.173208,4.1062875,0.46734267,-2.5961661,-4.907856,-6.325878,-6.8629103,-6.7207265,-6.206008,-5.640962,-5.281736,-5.247772,-5.516483,-5.9690495,-6.486679,-7.0290623,-7.6132193,-8.2798,-9.046839,-9.856517,-10.53999,-10.758803,-10.018099,-7.799794,-3.789906,1.8974661,8.592588,15.15265,20.327091,23.202377,23.4983,21.566782,18.129839,13.942134,9.563075,5.339522,1.474619,-1.8865091,-4.574624,-6.4257674,-7.380274,-7.5430784,-7.187443,-6.6713734,-6.3001738,-6.2252574,-6.431626,-6.8285713,-7.319638,-7.8304644,-8.362151,-8.97561,-9.707463,-10.5042095,-11.182489,-11.390718,-10.5905075,-8.204291,-3.9061203,2.114979,9.065246,15.742959,20.922695,23.74775,23.968386,21.956406,18.457071,14.235545,9.89562,5.7761364,1.9761765,-1.4398177,-4.3176756,-6.4506216,-7.7064247,-8.124151,-7.9259863,-7.4403963,-6.9590797,-6.686239,-6.731933,-7.0546556,-7.508845,-7.9669275,-8.412802,-8.968767,-9.727026,-10.60191,-11.343832,-11.5223875,-10.574859,-7.992856,-3.5513518,2.5064092,9.41719,16.00994,21.048874,23.702728,23.822186,21.844547,18.477869,14.401961,10.1259365,5.941372,1.9967817,-1.5377959,-4.454266,-6.565311,-7.7679024,-8.117182,-7.844298,-7.3083425,-6.8510637,-6.666228,-6.793984,-7.1856556,-7.733278,-8.3150015,-8.903786,-9.563146,-10.331191,-11.153513,-11.818585,-11.879662,-10.75084,-7.934839,-3.2325878,3.05462,10.079067,16.654337,21.579956,24.064629,24.001024,21.863829,18.423117,14.409633,10.309609,6.381756,2.7516656,-0.5059006,-3.2666755,-5.356707,-6.6698284,-7.2089915,-7.1291027,-6.760393,-6.437064,-6.352373,-6.573244,-7.060838,-7.696996,-8.378238,-9.087908,-9.875427,-10.78378,-11.753513,-12.531669,-12.679742,-11.667125,-9.009708,-4.4868965,1.6878847,8.772469,15.565257,20.812262,23.685144,24.031586,22.276775,19.103022,15.187425,11.065758,7.0771427,3.3618395,-0.021910947,-2.9519687,-5.2287626,-6.687051,-7.3101263,-7.2457304,-6.7812233,-6.2632413,-5.9700184,-6.0332456,-6.4036083,-6.924566,-7.4897733,-8.053862,-8.596818,-9.179097,-9.8683815,-10.605641,-11.154342,-11.09579,-9.915007,-7.1668186,-2.6804993,3.2395375,9.776951,15.818012,20.280119,22.456383,22.206865,19.881607,16.147207,11.737831,7.228485,3.0013235,-0.6849538,-3.6328886,-5.685578,-6.764693,-6.9310665,-6.438862,-5.713025,-5.152154,-4.9552207,-5.1484857,-5.6347804,-6.249011,-6.8547926,-7.4084964,-7.9717574,-8.625728,-9.389084,-10.196752,-10.855363,-11.006872,-10.15663,-7.773226,-3.518798
-3.2018094,-4.1273794,-5.2211003,-6.4261484,-7.6143165,-8.711982,-9.761461,-10.763111,-11.645982,-12.394332,-13.012265,-13.469206,-13.77884,-14.043268,-14.368,-14.762325,-15.140506,-15.301838,-14.899007,-13.502879,-10.686945,-6.210106,-0.2850786,6.418398,13.050045,18.778622,22.917273,25.107666,25.42788,24.305643,22.301683,19.87133,17.220009,14.387791,11.406843,8.365626,5.4271894,2.8134844,0.74025,-0.6723834,-1.5010643,-2.006207,-2.4387567,-2.9432552,-3.6158469,-4.5014596,-5.5521235,-6.6616707,-7.7550635,-8.833705,-9.898806,-10.875303,-11.672324,-12.246301,-12.639238,-12.945802,-13.23144,-13.529779,-13.834802,-14.112956,-14.291151,-14.1762085,-13.400946,-11.49803,-8.096148,-3.0646374,3.2880783,10.203862,16.728348,21.907907,25.12627,26.298267,25.75161,24.049461,21.747946,19.19194,16.464146,13.548784,10.477772,7.332365,4.288566,1.6189544,-0.42684186,-1.7915639,-2.6399105,-3.2095573,-3.7311463,-4.3845415,-5.2313757,-6.2458906,-7.3663216,-8.519252,-9.637723,-10.679491,-11.660445,-12.571207,-13.335154,-13.899134,-14.273895,-14.541748,-14.7892685,-15.048535,-15.313719,-15.521524,-15.501047,-14.939621,-13.407033,-10.4403925,-5.747457,0.544639,7.8324127,15.15527,21.467321,25.990402,28.408169,28.850262,27.76005,25.686064,23.091246,20.272627,17.3415,14.262117,11.001306,7.6413693,4.381149,1.5205181,-0.6402846,-2.0320272,-2.8725061,-3.4577074,-4.0145445,-4.698504,-5.5994806,-6.700289,-7.8800507,-9.034916,-10.1307955,-11.150499,-12.043806,-12.746303,-13.268524,-13.667274,-13.971757,-14.203459,-14.395094,-14.572848,-14.73992,-14.86588,-14.764209,-14.016266,-12.134692,-8.795165,-4.008041,1.8999442,8.35459,14.499389,19.432365,22.582537,23.82341,23.423267,21.891947,19.756725,17.370335,14.867617,12.267854,9.564259,6.826782,4.234966,1.9794049,0.19647126,-1.042806,-1.7701961,-2.1748674,-2.5093532,-2.9367466,-3.5325253,-4.2880635,-5.1372213,-6.044231,-6.982897,-7.8952317,-8.715837,-9.398774,-9.936926,-10.370014,-10.71072,-10.929952,-11.086078,-11.283357,-11.548929,-11.846835,-12.069117,-12.010142,-11.3451605,-9.662253,-6.6565175,-2.285583,3.1936347,9.182676,14.847694,19.351095,22.096254,22.965082,22.256804,20.447372,18.035988,15.403738,12.722297,9.99618,7.237135,4.589798,2.2637887,0.40634105,-0.9341739,-1.8047389,-2.3439374,-2.7344754,-3.1295538,-3.6228647,-4.2451506,-4.990289,-5.847246,-6.7783046,-7.7268066,-8.628415,-9.410034,-10.026952,-10.479946,-10.820928,-11.096401,-11.30012,-11.443168,-11.592811,-11.818988,-12.090495,-12.234853,-11.973225,-10.917788,-8.644768,-4.8850794,0.31630594,6.50813,12.836142,18.308605,22.162989,24.037704,24.024439,22.598747,20.378769,17.855658,15.267699,12.630403,9.837098,6.8697433,3.9568892,1.4165343,-0.54337025,-1.8465991,-2.5790207,-2.9647238,-3.2394996,-3.5944827,-4.1545744,-4.948892,-5.9223313,-6.962077,-7.953082,-8.86763,-9.723822,-10.469431,-11.03551,-11.436197,-11.737146,-11.98147,-12.205089,-12.439387,-12.668147,-12.86992,-13.000589,-12.87587,-12.120038,-10.254792,-6.9224496,-2.0614114,4.020989,10.629102,16.814157,21.64375,24.527487,25.41619,24.681055,22.862528,20.450773,17.761929,14.925211,11.986413,9.001382,6.0407014,3.245267,0.7930841,-1.1423786,-2.4311917,-3.1776533,-3.6424756,-4.025017,-4.48023,-5.135852,-6.030803,-7.093375,-8.183591,-9.200185,-10.139996,-10.9893465,-11.690885,-12.225398,-12.632148,-12.970847,-13.231464,-13.392683,-13.511612,-13.64648,-13.762077,-13.672916,-13.056812,-11.488804,-8.555496,-4.064906,1.8244903,8.57994,15.294684,20.896412,24.638874,26.320427,26.168102,24.700916,22.497955,19.981552,17.340448,14.5898075,11.714205,8.7220125,5.6908994,2.8390677,0.434282,-1.3731338,-2.5829515,-3.3303375,-3.8396354,-4.3154964,-4.9020233,-5.650878,-6.5181117,-7.4659276,-8.466324,-9.439205,-10.27797,-10.930372,-11.430453,-11.8318,-12.179619,-12.475681,-12.675304,-12.806394,-12.958604,-13.165073,-13.3101845,-13.118792,-12.23401,-10.258454,-6.8792033,-2.0598476,3.857253,10.176959,15.990154,20.386608,22.821291,23.33097,22.347773,20.441942,18.116495,15.655084,13.120769,10.473998,7.721977,4.9947553,2.5228064,0.53743565,-0.8641061,-1.7496428,-2.2846084,-2.6627648,-3.0380163,-3.5012498,-4.100588,-4.8394957,-5.6811104,-6.5740776,-7.4511333,-8.253076,-8.964089,-9.584744,-10.106947,-10.5048685,-10.762322,-10.900185,-10.990717,-11.132073,-11.336115,-11.512207,-11.480616,-10.919111,-9.4252615,-6.65544,-2.50089,2.7534654,8.430735,13.651469,17.653782,20.003937,20.638916,19.855524,18.169348,16.06589,13.850478,11.625177,9.353186,7.006301,4.6880875,2.58468,0.8274196,-0.4851966,-1.2880512,-1.6829017,-1.9084507,-2.1825733,-2.6383317,-3.3232343,-4.1908503,-5.129075,-6.0296235,-6.840439,-7.558118,-8.197355,-8.772602,-9.288365,-9.722193,-10.029689,-10.220608,-10.368094,-10.576397,-10.904682,-11.256409,-11.390095,-10.93641,-9.486024,-6.7848268,-2.808052,2.2068377,7.6919694,12.840829,16.852678,19.195028,19.831747,19.137293,17.613867,15.702688,13.67021,11.605038,9.474572,7.2436233,5.0100474,2.9712996,1.3090547,0.08222433,-0.76703995,-1.3344154,-1.7621596,-2.1703563,-2.6262975,-3.2006376,-3.9115295,-4.7199917,-5.561265,-6.371624,-7.1465087,-7.8938274,-8.575017,-9.123157,-9.508139,-9.776916,-9.997156,-10.226124,-10.512878,-10.852205,-11.151208,-11.247624,-10.876875,-9.65558,-7.2466717,-3.4896696
0.18020168,7.2252717,14.271933,20.205868,24.23086,26.091482,26.030127,24.574213,22.309969,19.709627,17.017908,14.240986,11.284416,8.15364,5.0024776,2.066093,-0.43012783,-2.3384676,-3.6219323,-4.3897448,-4.846111,-5.192834,-5.5773144,-6.1186757,-6.889007,-7.816347,-8.778702,-9.711516,-10.55791,-11.282214,-11.87812,-12.357153,-12.76081,-13.116589,-13.449873,-13.799315,-14.130859,-14.247081,-13.762357,-12.194866,-9.128955,-4.3831663,1.8211021,8.808559,15.566009,21.00749,24.374893,25.51036,24.809713,22.9261,20.44295,17.705172,14.795759,11.706637,8.4914875,5.265768,2.2200365,-0.4154911,-2.445886,-3.7713187,-4.4350567,-4.6396422,-4.705883,-4.898989,-5.3234677,-5.9717813,-6.756038,-7.5670614,-8.368995,-9.177671,-9.952783,-10.610544,-11.117546,-11.500793,-11.807756,-12.098077,-12.442121,-12.864861,-13.241635,-13.276802,-12.565367,-10.633462,-7.109674,-1.9674858,4.371948,11.068006,17.079386,21.504908,23.86767,24.209913,22.962475,20.728075,18.055935,15.260339,12.429496,9.553171,6.6395645,3.786565,1.1454074,-1.1020397,-2.7425447,-3.691332,-4.096473,-4.2146726,-4.3022294,-4.5584874,-5.0412455,-5.6860776,-6.43548,-7.2596693,-8.093486,-8.871475,-9.570599,-10.176907,-10.670852,-11.055252,-11.363529,-11.6327,-11.909562,-12.212304,-12.380699,-12.026353,-10.655972,-7.854675,-3.5006025,2.1014025,8.228406,13.901875,18.219957,20.655115,21.204668,20.294018,18.5006,16.335268,14.101946,11.887262,9.6283455,7.228986,4.7593555,2.4359148,0.42529184,-1.1807164,-2.3300173,-3.0180748,-3.3279867,-3.4488955,-3.5989103,-3.9263933,-4.456702,-5.1158524,-5.809177,-6.51235,-7.2421284,-7.9657474,-8.620133,-9.147007,-9.555028,-9.926347,-10.307999,-10.707207,-11.123716,-11.46543,-11.460837,-10.674763,-8.657036,-5.207401,-0.53129965,4.8082714,10.031114,14.34199,17.112663,18.099491,17.576471,16.129023,14.322006,12.497595,10.762078,9.070674,7.302184,5.376881,3.3589134,1.4346361,-0.1857158,-1.3707736,-2.1088712,-2.464195,-2.5841389,-2.693802,-2.968711,-3.4745395,-4.1766677,-4.989586,-5.868986,-6.768926,-7.595983,-8.284176,-8.838107,-9.308645,-9.728581,-10.096648,-10.433175,-10.7740345,-11.078138,-11.191817,-10.860564,-9.69401,-7.294185,-3.5263345,1.3200707,6.5562816,11.311538,14.832261,16.736082,17.088594,16.297806,14.941546,13.516017,12.235693,11.032405,9.704528,8.090031,6.165613,4.086866,2.13727,0.57007277,-0.5063831,-1.1308124,-1.4418936,-1.611723,-1.7823179,-2.0502665,-2.4966109,-3.1635802,-4.014738,-4.9836335,-5.9855323,-6.920995,-7.714654,-8.302784,-8.666343,-8.872926,-9.005857,-9.102762,-9.197994,-9.295365,-9.268803,-8.867302,-7.7430587,-5.523545,-1.9980383,2.6745033,7.796987,12.355169,15.555971,17.069782,17.002546,15.811833,14.099024,12.31771,10.617022,8.939911,7.1748495,5.2463207,3.1771698,1.105048,-0.7076619,-2.021871,-2.8084486,-3.1632674,-3.2470193,-3.284609,-3.4563916,-3.849274,-4.452181,-5.195153,-5.9765387,-6.682718,-7.2586017,-7.694071,-8.023907,-8.324517,-8.644721,-8.989247,-9.3569145,-9.769332,-10.207124,-10.549474,-10.55125,-9.866707,-8.14827,-5.1326904,-0.8674369,4.109212,8.976752,12.901925,15.22614,15.747735,14.825628,13.127936,11.296989,9.708045,8.406385,7.223576,6.0058923,4.738026,3.5090744,2.468191,1.7196137,1.2585744,1.0021613,0.78973585,0.41566375,-0.25248787,-1.1999267,-2.3129632,-3.4491296,-4.4922595,-5.392566,-6.132698,-6.697095,-7.0947194,-7.3805766,-7.6414914,-7.9572587,-8.377286,-8.899415,-9.460973,-9.967282,-10.278908,-10.154268,-9.2352915,-7.1279993,-3.601092,1.2148559,6.7018385,11.83178,15.614638,17.544004,17.679594,16.504864,14.683469,12.789408,11.106663,9.587964,8.016983,6.237941,4.26998,2.3030076,0.59912866,-0.65776914,-1.4395096,-1.861505,-2.1171665,-2.3704681,-2.7227972,-3.2354712,-3.9195042,-4.745202,-5.6465273,-6.5440226,-7.4076056,-8.22113,-8.923539,-9.4941635,-9.992358,-10.479723,-10.996313,-11.561386,-12.150583,-12.585648,-12.491448,-11.424555,-9.004155,-5.090595,0.066820495,5.8367963,11.3351555,15.673933,18.253696,18.975725,18.233854,16.678635,14.912005,13.24689,11.680548,10.05972,8.243262,6.1867146,4.011215,1.9906719,0.37135285,-0.74920213,-1.4008373,-1.719466,-1.9222105,-2.195501,-2.6282444,-3.2801864,-4.1410956,-5.1080184,-6.1094856,-7.1040835,-8.053332,-8.933048,-9.695719,-10.319221,-10.856262,-11.37134,-11.910403,-12.481966,-12.947708,-13.012303,-12.290499,-10.3635645,-6.958704,-2.1495454,3.5688653,9.3479805,14.174337,17.258608,18.39819,17.938414,16.536442,14.836113,13.245831,11.927016,10.765634,9.504593,7.9859037,6.2240644,4.3432403,2.535396,1.0505419,0.022243518,-0.64725566,-1.1553568,-1.6714218,-2.2848988,-3.0336497,-3.940553,-4.975221,-6.0568647,-7.087105,-7.9952693,-8.766955,-9.418029,-9.97879,-10.470508,-10.925557,-11.391792,-11.88901,-12.397528,-12.780009,-12.726698,-11.798211,-9.520477,-5.6406817,-0.33686057,5.7779975,11.7221155,16.442268,19.24348,20.004011,19.166403,17.4598,15.5157795,13.669925,11.949052,10.225839,8.370514,6.3369236,4.227191,2.2445583,0.5877716,-0.6271817,-1.3964443,-1.8113921,-2.0333793,-2.2691977,-2.6966248,-3.3865392,-4.285775,-5.2471647,-6.168812,-7.061261,-7.946475,-8.801828,-9.566505,-10.199132,-10.710611,-11.150859,-11.591456,-12.063877,-12.50013,-12.718014,-12.422051,-11.188518,-8.581368,-4.389751,1.1612053
2.8029337,9.133181,15.103089,19.746088,22.452385,23.11489,22.09647,20.03363,17.530193,14.955007,12.406649,9.81488,7.1069794,4.3421717,1.7257288,-0.54456407,-2.3350017,-3.527545,-4.125413,-4.3114233,-4.334087,-4.4246173,-4.7158933,-5.207481,-5.8485384,-6.5975156,-7.4111996,-8.207796,-8.890316,-9.416426,-9.802663,-10.081618,-10.300885,-10.529033,-10.803697,-11.106753,-11.331412,-11.227109,-10.448857,-8.614543,-5.394976,-0.74947965,4.9143195,10.8051405,15.971289,19.59425,21.2761,21.115852,19.557793,17.205647,14.580101,11.953346,9.386174,6.8420005,4.313693,1.8985316,-0.23870248,-1.9354608,-3.077332,-3.6852043,-3.9178107,-3.9632983,-3.9931762,-4.140623,-4.47296,-4.9884095,-5.643584,-6.3784413,-7.1237535,-7.8248653,-8.436464,-8.925686,-9.298241,-9.589749,-9.84916,-10.129272,-10.446729,-10.737031,-10.832671,-10.426363,-9.059268,-6.3196516,-2.1135287,3.2246854,8.961135,14.169787,18.027197,20.06694,20.300453,19.121422,17.113224,14.82505,12.555674,10.325916,8.041309,5.651599,3.2223642,0.9490155,-0.9371386,-2.2893314,-3.1069205,-3.51915,-3.680011,-3.7289894,-3.8252578,-4.1148195,-4.633429,-5.315599,-6.0800414,-6.853042,-7.5819116,-8.200096,-8.650185,-8.961924,-9.207469,-9.459332,-9.766411,-10.12057,-10.462247,-10.647013,-10.384957,-9.291377,-7.0288315,-3.4471436,1.2827026,6.610662,11.708118,15.721864,18.099188,18.76703,18.053295,16.481405,14.560361,12.632198,10.795505,8.93746,6.9258585,4.771382,2.626572,0.6944911,-0.88615733,-2.0448325,-2.735321,-3.0243874,-3.136051,-3.2979982,-3.6186783,-4.1209025,-4.772953,-5.494942,-6.220303,-6.92687,-7.6011353,-8.200828,-8.682509,-9.070186,-9.411614,-9.726302,-10.010813,-10.25221,-10.443713,-10.45922,-9.984265,-8.618853,-6.022747,-2.1421924,2.6487796,7.6657643,12.149186,15.416318,17.065542,17.166777,16.155367,14.594054,12.948493,11.423876,9.985344,8.478132,6.7467685,4.7741733,2.7567444,0.9615998,-0.45472562,-1.4601204,-2.1028674,-2.475469,-2.7098339,-2.967388,-3.3580692,-3.9160469,-4.637418,-5.4684687,-6.307797,-7.0643296,-7.698071,-8.203679,-8.601264,-8.939668,-9.255654,-9.556871,-9.844612,-10.124961,-10.339685,-10.304744,-9.713992,-8.166591,-5.321053,-1.1176924,4.0698247,9.473699,14.139861,17.257927,18.522987,18.171288,16.755348,14.921972,13.137344,11.496004,9.87298,8.148227,6.248926,4.188961,2.1232665,0.30922788,-1.0325758,-1.8665268,-2.3020473,-2.4910736,-2.6252005,-2.884729,-3.3509433,-4.0017138,-4.7829666,-5.6414976,-6.497473,-7.2836304,-7.972902,-8.540934,-8.994481,-9.381544,-9.730317,-10.051356,-10.35726,-10.652102,-10.879921,-10.793468,-9.973818,-8.022308,-4.74995,-0.31389606,4.8101535,9.876241,13.976378,16.444868,17.143635,16.38927,14.753766,12.803485,10.913154,9.203957,7.5851145,5.9228826,4.1896596,2.4607444,0.86424863,-0.44662473,-1.354271,-1.8323486,-1.9726919,-1.9771395,-2.053195,-2.3243039,-2.8066783,-3.4300563,-4.126351,-4.865652,-5.626513,-6.368206,-7.0279255,-7.564452,-7.9855666,-8.349266,-8.727918,-9.137228,-9.546834,-9.894604,-10.03618,-9.721398,-8.590998,-6.266583,-2.602196,2.111626,7.191626,11.778147,15.089009,16.681112,16.622179,15.404981,13.633474,11.7577505,9.988971,8.3453865,6.754319,5.133387,3.4754927,1.875401,0.48161444,-0.5891574,-1.3181357,-1.7386425,-1.9248284,-2.0152392,-2.185006,-2.559364,-3.127797,-3.817005,-4.565724,-5.328066,-6.0844727,-6.8142266,-7.480043,-8.039134,-8.488946,-8.870633,-9.234863,-9.651218,-10.120883,-10.4984865,-10.534311,-9.900226,-8.235757,-5.254538,-0.91888255,4.3567963,9.734605,14.2662325,17.211056,18.26573,17.673456,16.060589,14.108055,12.270992,10.657162,9.118232,7.4717813,5.65817,3.7414968,1.875254,0.2469609,-1.0040487,-1.827312,-2.2896411,-2.5416198,-2.7484143,-3.058541,-3.5826473,-4.345594,-5.259064,-6.202818,-7.09751,-7.910831,-8.65057,-9.334443,-9.961574,-10.5239315,-11.036838,-11.524437,-11.996997,-12.4253645,-12.649774,-12.324156,-11.016314,-8.375167,-4.2987742,0.91244596,6.574086,11.78864,15.713065,17.909155,18.45224,17.786352,16.49067,15.034304,13.660957,12.337623,10.859719,9.080464,7.0122604,4.823054,2.7886627,1.1503621,-0.0126025025,-0.7600943,-1.2271624,-1.576793,-1.9572549,-2.4795425,-3.2014065,-4.121235,-5.1695137,-6.2503304,-7.2943687,-8.26424,-9.139707,-9.891248,-10.499339,-10.994512,-11.463786,-11.987151,-12.535995,-12.973412,-13.052524,-12.411851,-10.695379,-7.656016,-3.2737424,2.0666213,7.605957,12.477153,15.989507,17.852589,18.229698,17.568844,16.380476,15.040856,13.684034,12.259061,10.62505,8.682294,6.509468,4.312153,2.3249474,0.75282127,-0.32262462,-0.9889214,-1.4270208,-1.8047653,-2.2537084,-2.846962,-3.5889637,-4.448468,-5.368842,-6.2942343,-7.1757917,-7.962735,-8.633039,-9.203639,-9.706285,-10.18182,-10.664571,-11.16207,-11.637005,-11.954416,-11.876213,-11.082133,-9.225258,-6.0950503,-1.7671709,3.3215437,8.423337,12.722894,15.611751,16.880718,16.748293,15.682975,14.1483555,12.458538,10.7680435,9.069535,7.2827992,5.386406,3.4708335,1.7242327,0.30944395,-0.7014955,-1.3265653,-1.678765,-1.9159217,-2.196645,-2.625213,-3.2178042,-3.9436162,-4.774324,-5.660984,-6.5162654,-7.298366,-8.025977,-8.704505,-9.297777,-9.770985,-10.170467,-10.570367,-10.9839,-11.381014,-11.632373,-11.460478,-10.470359,-8.225589,-4.4712243,0.62828237
2.6745033,7.796987,12.355169,15.555971,17.069782,17.002546,15.811833,14.099024,12.31771,10.617022,8.939911,7.1748495,5.2463207,3.1771698,1.105048,-0.7076619,-2.021871,-2.8084486,-3.1632674,-3.2470193,-3.284609,-3.4563916,-3.849274,-4.452181,-5.195153,-5.9765387,-6.682718,-7.2586017,-7.694071,-8.023907,-8.324517,-8.644721,-8.989247,-9.3569145,-9.769332,-10.207124,-10.549474,-10.55125,-9.866707,-8.14827,-5.1326904,-0.8674369,4.109212,8.976752,12.901925,15.22614,15.747735,14.825628,13.127936,11.296989,9.708045,8.406385,7.223576,6.0058923,4.738026,3.5090744,2.468191,1.7196137,1.2585744,1.0021613,0.78973585,0.41566375,-0.25248787,-1.1999267,-2.3129632,-3.4491296,-4.4922595,-5.392566,-6.132698,-6.697095,-7.0947194,-7.3805766,-7.6414914,-7.9572587,-8.377286,-8.899415,-9.460973,-9.967282,-10.278908,-10.154268,-9.2352915,-7.1279993,-3.601092,1.2148559,6.7018385,11.83178,15.614638,17.544004,17.679594,16.504864,14.683469,12.789408,11.106663,9.587964,8.016983,6.237941,4.26998,2.3030076,0.59912866,-0.65776914,-1.4395096,-1.861505,-2.1171665,-2.3704681,-2.7227972,-3.2354712,-3.9195042,-4.745202,-5.6465273,-6.5440226,-7.4076056,-8.22113,-8.923539,-9.4941635,-9.992358,-10.479723,-10.996313,-11.561386,-12.150583,-12.585648,-12.491448,-11.424555,-9.004155,-5.090595,0.066820495,5.8367963,11.3351555,15.673933,18.253696,18.975725,18.233854,16.678635,14.912005,13.24689,11.680548,10.05972,8.243262,6.1867146,4.011215,1.9906719,0.37135285,-0.74920213,-1.4008373,-1.719466,-1.9222105,-2.195501,-2.6282444,-3.2801864,-4.1410956,-5.1080184,-6.1094856,-7.1040835,-8.053332,-8.933048,-9.695719,-10.319221,-10.856262,-11.37134,-11.910403,-12.481966,-12.947708,-13.012303,-12.290499,-10.3635645,-6.958704,-2.1495454,3.5688653,9.3479805,14.174337,17.258608,18.39819,17.938414,16.536442,14.836113,13.245831,11.927016,10.765634,9.504593,7.9859037,6.2240644,4.3432403,2.535396,1.0505419,0.022243518,-0.64725566,-1.1553568,-1.6714218,-2.2848988,-3.0336497,-3.940553,-4.975221,-6.0568647,-7.087105,-7.9952693,-8.766955,-9.418029,-9.97879,-10.470508,-10.925557,-11.391792,-11.88901,-12.397528,-12.780009,-12.726698,-11.798211,-9.520477,-5.6406817,-0.33686057,5.7779975,11.7221155,16.442268,19.24348,20.004011,19.166403,17.4598,15.5157795,13.669925,11.949052,10.225839,8.370514,6.3369236,4.227191,2.2445583,0.5877716,-0.6271817,-1.3964443,-1.8113921,-2.0333793,-2.2691977,-2.6966248,-3.3865392,-4.285775,-5.2471647,-6.168812,-7.061261,-7.946475,-8.801828,-9.566505,-10.199132,-10.710611,-11.150859,-11.591456,-12.063877,-12.50013,-12.718014,-12.422051,-11.188518,-8.581368,-4.389751,1.1612053,7.3142605,12.982425,17.168892,19.313763,19.420744,18.010382,15.86163,13.613954,11.567008,9.705488,7.8675094,5.9433455,3.9749303,2.105891,0.4912929,-0.7121079,-1.4443688,-1.798541,-1.9305401,-2.0260465,-2.246847,-2.678927,-3.3571484,-4.239691,-5.1907916,-6.0755634,-6.8483534,-7.5334134,-8.169609,-8.7589445,-9.285171,-9.783093,-10.305038,-10.878648,-11.476578,-11.962524,-12.0647955,-11.372939,-9.452576,-6.0228925,-1.1309673,4.737983,10.732209,15.786496,18.984081,20.003538,19.17858,17.228168,14.86439,12.567964,10.528987,8.675438,6.869302,5.024774,3.1428702,1.3210256,-0.26941934,-1.4207519,-2.0515654,-2.2786078,-2.3255703,-2.4307146,-2.7537272,-3.3216794,-4.0629263,-4.90624,-5.793609,-6.6572475,-7.461528,-8.213702,-8.950224,-9.668614,-10.311602,-10.855332,-11.333993,-11.821786,-12.318111,-12.599053,-12.260586,-10.825453,-7.877578,-3.256414,2.7780983,9.448269,15.617152,20.150204,22.34428,22.216621,20.379152,17.704922,14.975308,12.590316,10.539392,8.596062,6.54426,4.3263206,2.104893,0.1846024,-1.2403879,-2.1786563,-2.7047503,-2.9336555,-3.0686858,-3.3282378,-3.8186102,-4.5404224,-5.445061,-6.433443,-7.4345155,-8.43387,-9.41086,-10.324202,-11.121829,-11.797306,-12.391362,-12.930719,-13.457629,-14.026948,-14.549447,-14.692318,-13.961524,-11.808083,-7.822145,-2.0261967,4.9759903,12.119311,18.15085,22.022736,23.389435,22.682468,20.733795,18.388775,16.193262,14.28998,12.506739,10.579725,8.379164,5.9700274,3.57184,1.4733233,-0.09040628,-1.0558673,-1.5432727,-1.7784476,-2.0110536,-2.434828,-3.1451418,-4.12681,-5.3180847,-6.6510105,-8.00119,-9.245919,-10.3246,-11.225173,-11.983735,-12.653778,-13.279048,-13.885563,-14.500282,-15.1147175,-15.594615,-15.632515,-14.728415,-12.311833,-8.013826,-1.9366151,5.24272,12.417686,18.356844,22.152075,23.594107,23.098661,21.385944,19.19999,17.062134,15.142988,13.309325,11.31204,9.011909,6.487074,3.9805877,1.7828637,0.1345372,-0.90446603,-1.4878958,-1.8120747,-2.0804598,-2.52477,-3.2549448,-4.218741,-5.3123226,-6.4567204,-7.608259,-8.735816,-9.797148,-10.728077,-11.49736,-12.137545,-12.693858,-13.231535,-13.829779,-14.484877,-15.061207,-15.300051,-14.799704,-13.054374,-9.625577,-4.3936367,2.2443628,9.387634,15.823327,20.442635,22.712112,22.776844,21.26254,18.94834,16.459929,14.132103,11.972162,9.801157,7.489044,5.071805,2.7689652,0.8530164,-0.5115656,-1.3228666,-1.7236695,-1.9284449,-2.1461163,-2.5215783,-3.1254241,-3.971787,-5.013045,-6.163543,-7.348345,-8.499575,-9.556416,-10.4999695,-11.321274,-12.005876,-12.619417,-13.257801,-13.927298,-14.57045,-15.067888,-15.167867,-14.4511,-12.413879,-8.678137,-3.1675127
-4.9340553,-5.1931114,-5.4508495,-5.7346873,-6.068466,-6.4306526,-6.771984,-7.0720263,-7.330242,-7.574381,-7.8210716,-8.058643,-8.26843,-8.312735,-7.8812146,-6.540528,-3.867225,0.27541137,5.60808,11.441356,16.711739,20.326012,21.642344,20.711805,18.187424,14.946126,11.74417,9.015668,6.8026247,4.8867426,3.0240247,1.111193,-0.7669884,-2.3933725,-3.5570092,-4.16723,-4.282769,-4.0955677,-3.8359861,-3.67827,-3.7307034,-4.030673,-4.5366106,-5.1549506,-5.784617,-6.328735,-6.7389097,-7.0373683,-7.235986,-7.3318033,-7.3804216,-7.454565,-7.545083,-7.626978,-7.727358,-7.881654,-8.106265,-8.263994,-7.99027,-6.7684097,-4.0873194,0.28214824,6.0742784,12.369592,17.80552,21.195778,22.003157,20.503183,17.528646,14.034621,10.756366,8.024429,5.8333783,3.9592824,2.1441836,0.3224065,-1.3849401,-2.8036582,-3.7853084,-4.256338,-4.251871,-3.9179065,-3.4911144,-3.2219892,-3.2430618,-3.5263672,-3.9507608,-4.3954396,-4.802472,-5.175304,-5.5606337,-5.995642,-6.451162,-6.8590684,-7.1660314,-7.3603525,-7.4572415,-7.4812927,-7.487732,-7.553648,-7.7194595,-7.9322824,-7.999064,-7.549573,-6.1073184,-3.2391737,1.2191367,6.9206614,13.008831,18.279373,21.560535,22.273643,20.66041,17.54912,13.9200325,10.48949,7.5287232,4.9860134,2.7070062,0.5582254,-1.4681492,-3.2031093,-4.4367733,-5.0433307,-5.043479,-4.6175294,-4.005808,-3.4409504,-3.1074574,-3.0901105,-3.3820639,-3.8921514,-4.4656734,-4.986222,-5.420831,-5.8058863,-6.1975055,-6.571339,-6.879017,-7.1181655,-7.2912116,-7.3958898,-7.4458914,-7.4968166,-7.577568,-7.6367674,-7.5191317,-6.8877516,-5.279244,-2.2811077,2.232955,7.8985534,13.812777,18.735712,21.617691,22.034384,20.242601,17.03363,13.369769,9.951344,7.05333,4.634326,2.5138226,0.51494366,-1.4138843,-3.1126924,-4.2987876,-4.8261094,-4.760614,-4.309079,-3.765869,-3.390929,-3.323014,-3.5542202,-3.9763434,-4.4772305,-4.9852147,-5.469616,-5.919506,-6.335929,-6.715585,-7.054002,-7.357559,-7.6350274,-7.8969045,-8.117457,-8.2617855,-8.359644,-8.450121,-8.466454,-8.165222,-7.109251,-4.7767463,-0.8264605,4.6487613,10.953419,16.822083,20.929892,22.52734,21.661959,19.011166,15.527015,12.051248,9.037114,6.523561,4.3356166,2.283133,0.28703895,-1.5844212,-3.1620977,-4.250029,-4.7390056,-4.687496,-4.32212,-3.9210968,-3.6671302,-3.6307526,-3.8050835,-4.1496806,-4.6029744,-5.0909877,-5.5916886,-6.1023936,-6.60207,-7.0792623,-7.5041065,-7.840743,-8.103275,-8.3221855,-8.499731,-8.6352,-8.774622,-8.913557,-8.799174,-7.989669,-6.047163,-2.6577642,2.2158685,8.116328,14.057746,18.86336,21.599161,21.93426,20.230593,17.260443,13.882938,10.769548,8.178294,6.0048337,4.0231214,2.0787702,0.15714462,-1.6373575,-3.1048658,-4.046124,-4.4200416,-4.354624,-4.034022,-3.675765,-3.4974325,-3.5960085,-3.931478,-4.398636,-4.9177732,-5.474543,-6.0536265,-6.609949,-7.126909,-7.627513,-8.104652,-8.5077,-8.81779,-9.074257,-9.324075,-9.5856495,-9.811612,-9.868147,-9.504634,-8.286133,-5.716589,-1.5351542,4.0631156,10.362274,16.250124,20.566942,22.574675,22.234194,20.145458,17.203787,14.174905,11.44773,9.025513,6.7116733,4.3294454,1.8486445,-0.5891306,-2.6897924,-4.0929317,-4.6048856,-4.353011,-3.7027974,-3.0611286,-2.7034707,-2.7420006,-3.1556711,-3.8258457,-4.5815296,-5.2173734,-5.621464,-5.848466,-5.9711213,-6.0286393,-6.0716763,-6.1479797,-6.283298,-6.461362,-6.654798,-6.870526,-7.149666,-7.528376,-7.969005,-8.334237,-8.37968,-7.7448144,-6.016891,-2.8388348,1.8622584,7.618559,13.435803,18.07576,20.55024,20.573818,18.599129,15.497475,12.138908,9.084824,6.5276747,4.4002156,2.5415976,0.8480101,-0.6744453,-1.9292266,-2.77483,-3.1513584,-3.182329,-3.0972102,-3.0930486,-3.2720618,-3.6290119,-4.0737,-4.509128,-4.8873096,-5.232584,-5.6123466,-6.0558815,-6.548811,-7.056957,-7.5519505,-8.004173,-8.360431,-8.591945,-8.697864,-8.686469,-8.620944,-8.581002,-8.511291,-8.141452,-7.006159,-4.5868464,-0.56727713,4.933735,11.213879,17.10474,21.411781,23.355465,22.80885,20.310106,16.78223,13.092726,9.752219,6.8764195,4.364571,2.0979276,0.01804123,-1.8241649,-3.2547526,-4.086083,-4.259791,-3.906179,-3.331189,-2.8844905,-2.800086,-3.136309,-3.788927,-4.5941634,-5.4090414,-6.135068,-6.741098,-7.2155204,-7.543043,-7.765381,-7.9725137,-8.211323,-8.471174,-8.725458,-8.94647,-9.138579,-9.319698,-9.4529,-9.3674755,-8.67437,-6.8433104,-3.4432135,1.6180074,7.9192004,14.493322,20.061937,23.4722,24.141048,22.310839,18.894451,14.989299,11.401184,8.423874,5.9471526,3.7244098,1.5901593,-0.4361981,-2.2242877,-3.635877,-4.51729,-4.7885222,-4.579655,-4.1527786,-3.7552547,-3.5572004,-3.6335976,-4.002004,-4.607303,-5.310393,-5.9881253,-6.5872774,-7.113513,-7.5904126,-8.027728,-8.419528,-8.742989,-9.015031,-9.291485,-9.59894,-9.905701,-10.119976,-10.0809355,-9.503684,-7.9860845,-5.082129,-0.5295473,5.4423637,12.060031,18.096245,22.255959,23.80598,22.860256,20.19552,16.815983,13.517824,10.667239,8.233432,5.9825177,3.6980715,1.3585367,-0.8585566,-2.7061687,-3.993723,-4.643834,-4.7211494,-4.450417,-4.1074257,-3.9156048,-3.9863598,-4.300718,-4.7993875,-5.4060388,-6.0284214,-6.6078773,-7.127286,-7.5953918,-8.027378,-8.434804,-8.804355,-9.121186,-9.405095,-9.65368,-9.857345,-10.042119,-10.146491,-9.877232,-8.72763,-6.1550336,-1.8229319
-0.4488874,6.6378837,13.756761,19.616512,23.199081,24.187304,23.032406,20.633635,17.937151,15.567779,13.636627,11.872483,9.921174,7.6298513,5.166837,2.9046826,1.1537094,0.002444694,-0.60560036,-0.82345545,-0.9213275,-1.1845444,-1.7961652,-2.79158,-4.0768127,-5.474787,-6.7853336,-7.907215,-8.879097,-9.777161,-10.625405,-11.4029875,-12.102878,-12.718014,-13.2304945,-13.672437,-14.119852,-14.605879,-15.061588,-15.298359,-14.934128,-13.383952,-10.090319,-4.8318267,2.0490663,9.598775,16.49184,21.530172,24.086548,24.24368,22.695501,20.37805,18.021935,15.964239,14.160304,12.335391,10.242519,7.82727,5.259149,2.8700254,0.9947366,-0.20617872,-0.8105882,-1.053342,-1.1986626,-1.488662,-2.1376739,-3.2140481,-4.569713,-5.988978,-7.315515,-8.4913845,-9.557884,-10.56747,-11.517473,-12.367366,-13.089189,-13.69744,-14.236055,-14.748339,-15.277296,-15.849522,-16.374722,-16.560461,-15.897506,-13.775401,-9.731795,-3.7232327,3.6792338,11.381384,18.092644,22.726809,24.82305,24.70082,23.186972,21.155064,19.183966,17.464,15.89477,14.228792,12.210869,9.765053,7.053174,4.4248705,2.2852032,0.8436808,0.041656777,-0.37333348,-0.7280289,-1.3007302,-2.2573524,-3.5459821,-4.984586,-6.445364,-7.857349,-9.177929,-10.372081,-11.430896,-12.384685,-13.253903,-14.023798,-14.703468,-15.341298,-15.948153,-16.530481,-17.092403,-17.50749,-17.442919,-16.383144,-13.740745,-9.103112,-2.5634084,5.1363807,12.769688,19.039778,23.058552,24.628372,24.216536,22.674086,20.815168,19.105467,17.614706,16.139486,14.398946,12.208621,9.59041,6.8205423,4.3179293,2.4174042,1.2170606,0.5877534,0.24292046,-0.14704907,-0.80730516,-1.8253678,-3.159104,-4.660945,-6.1565747,-7.5147214,-8.704809,-9.771687,-10.743278,-11.603273,-12.339291,-12.970535,-13.539849,-14.088727,-14.652505,-15.284756,-15.942916,-16.381426,-16.198498,-14.884686,-11.9846,-7.334241,-1.1941496,5.736072,12.421366,17.74656,20.956575,21.953396,21.209581,19.469654,17.409,15.422328,13.594993,11.787036,9.800157,7.581626,5.3046875,3.2831008,1.8231306,0.9955364,0.6029266,0.39000326,0.12795895,-0.3515875,-1.1396497,-2.244853,-3.5603747,-4.9346504,-6.247228,-7.434365,-8.471895,-9.361631,-10.123721,-10.745769,-11.236717,-11.670094,-12.113825,-12.606514,-13.160518,-13.75474,-14.290306,-14.498073,-13.9396715,-12.095518,-8.5434885,-3.2496784,3.2746282,10.0731535,16.012228,20.158382,22.095337,22.0178,20.564476,18.495403,16.374819,14.411574,12.537047,10.564388,8.359342,5.9919124,3.7391357,1.9423288,0.7889977,0.22426423,0.02531261,-0.116296135,-0.46864638,-1.1624026,-2.188313,-3.4285247,-4.743122,-6.0404434,-7.2776093,-8.419134,-9.421281,-10.289634,-11.066615,-11.761549,-12.363894,-12.875784,-13.325443,-13.791226,-14.340365,-14.922041,-15.302118,-15.032508,-13.538847,-10.293715,-5.100164,1.6456244,9.038066,15.892778,21.0384,23.789673,24.201468,22.909191,20.780998,18.552326,16.571898,14.7930565,12.957847,10.82962,8.370392,5.7807584,3.423465,1.6400223,0.5317093,-0.05956008,-0.40496305,-0.7630065,-1.3267162,-2.2194738,-3.4512985,-4.885987,-6.338967,-7.6972885,-8.934897,-10.061137,-11.076684,-11.993592,-12.821039,-13.533902,-14.134886,-14.686155,-15.25865,-15.882667,-16.524126,-17.04294,-17.12996,-16.303194,-14.00496,-9.7925825,-3.654694,3.7834327,11.412272,17.987688,22.54496,24.714756,24.778341,23.472672,21.633783,19.830357,18.208578,16.584497,14.661347,12.292871,9.600456,6.8882513,4.495374,2.6511889,1.4223535,0.71269196,0.25545448,-0.27787304,-1.0795771,-2.1595113,-3.4734147,-4.9758835,-6.59227,-8.203741,-9.693649,-11.038213,-12.2630625,-13.36259,-14.30845,-15.067109,-15.663406,-16.191738,-16.73735,-17.36398,-18.061697,-18.652227,-18.729765,-17.684307,-14.948353,-10.289325,-3.9349422,3.496486,11.01786,17.415148,21.799984,23.960968,24.284998,23.46774,22.202171,20.969526,19.860365,18.654797,17.083483,14.988434,12.417949,9.634441,7.0193305,4.904344,3.4136631,2.4378445,1.7188565,0.9579378,-0.06290414,-1.3909491,-2.9281282,-4.5444713,-6.1607018,-7.7215705,-9.187919,-10.559771,-11.839179,-13.003979,-14.008769,-14.826843,-15.492688,-16.07283,-16.64099,-17.261007,-17.946362,-18.566841,-18.763714,-18.026455,-15.8533945,-11.922539,-6.2706428,0.58349794,7.697832,14.015992,18.697878,21.366674,22.22489,21.877947,20.98588,19.97813,18.978569,17.858376,16.37071,14.377044,11.941446,9.324231,6.881544,4.8882113,3.4751465,2.5775974,1.9464117,1.30096,0.4407441,-0.7125697,-2.1152384,-3.6378915,-5.149888,-6.5877934,-7.931583,-9.172337,-10.278828,-11.2247305,-12.044532,-12.778347,-13.449145,-14.083784,-14.689169,-15.285201,-15.918382,-16.53897,-16.879536,-16.484226,-14.839735,-11.531786,-6.499368,-0.19531578,6.5488467,12.74589,17.494293,20.295456,21.241976,20.845255,19.716263,18.326544,16.871431,15.3376875,13.625995,11.638306,9.377497,7.0131826,4.874545,3.26366,2.262728,1.7160336,1.3171458,0.78049636,-0.055689316,-1.2155107,-2.6090982,-4.095599,-5.5256424,-6.8180246,-7.992048,-9.106932,-10.193061,-11.206495,-12.0792675,-12.789359,-13.396405,-13.98565,-14.576475,-15.167763,-15.752385,-16.241623,-16.393736,-15.765322,-13.816084,-10.164005,-4.822761,1.7187485,8.602868,14.783041,19.335464,21.838793,22.478846,21.83984,20.549362,19.02906,17.481476,15.895121,14.113264,11.996626,9.568071,7.0927835,4.95176,3.400045,2.4328284
1.2230511,7.763425,13.928978,18.565405,21.002096,21.337656,20.193443,18.313574,16.2794,14.342946,12.4565935,10.444852,8.165706,5.6155066,2.9821477,0.5708331,-1.3742075,-2.7306728,-3.4956725,-3.8097627,-3.898031,-3.993656,-4.279384,-4.822699,-5.5538664,-6.340726,-7.1064863,-7.83999,-8.539929,-9.214371,-9.876321,-10.49164,-10.998638,-11.408824,-11.825038,-12.301042,-12.6821995,-12.624689,-11.684436,-9.388622,-5.42699,0.08743656,6.49496,12.724759,17.682735,20.672953,21.583351,20.815752,19.039862,16.855993,14.612804,12.397438,10.118903,7.6675963,5.0526834,2.4498122,0.10797283,-1.7527202,-2.9942544,-3.6480403,-3.893108,-3.9569218,-4.060831,-4.329354,-4.7633967,-5.31984,-5.9539523,-6.6418653,-7.3745756,-8.120551,-8.838134,-9.48452,-10.039889,-10.53199,-11.013842,-11.532317,-12.067266,-12.490184,-12.514622,-11.691027,-9.520999,-5.6389775,-0.08749107,6.5405316,13.18884,18.632698,21.989655,23.022804,22.111872,20.028328,17.570671,15.229558,13.080928,10.938379,8.566985,5.859109,2.935696,0.124799386,-2.1761608,-3.7178934,-4.5039973,-4.745393,-4.755182,-4.7961993,-5.020865,-5.502883,-6.232893,-7.1342607,-8.102056,-8.99948,-9.698927,-10.176549,-10.497485,-10.7584305,-11.077695,-11.541205,-12.162001,-12.8642435,-13.426907,-13.471721,-12.523291,-10.133649,-6.077167,-0.49446976,6.0356245,12.554043,17.995396,21.57655,23.073294,22.793972,21.372501,19.45623,17.421247,15.301004,12.906964,10.076484,6.837565,3.4117088,0.1392069,-2.6531088,-4.712034,-5.9021525,-6.313381,-6.197927,-5.834306,-5.484467,-5.3173876,-5.4142976,-5.83263,-6.5747266,-7.5912004,-8.82884,-10.234229,-11.689337,-13.019909,-14.115063,-14.943229,-15.493848,-15.714332,-15.46298,-14.468082,-12.303882,-8.537989,-3.0076332,3.9505715,11.46466,18.33421,23.425835,26.095648,26.435867,25.119123,22.943983,20.495035,17.957851,15.210559,12.129408,8.752429,5.283659,2.0250714,-0.656678,-2.4501777,-3.3174207,-3.4895515,-3.3636608,-3.4013171,-3.9766989,-5.2466106,-7.0583444,-9.046885,-10.806906,-12.024156,-12.6137905,-12.705393,-12.528513,-12.350437,-12.413642,-12.853167,-13.63525,-14.532029,-15.181215,-15.150461,-13.965602,-11.23173,-6.7828035,-0.8286996,5.9768,12.666551,18.236834,21.9777,23.692104,23.679913,22.47531,20.591251,18.39543,16.044304,13.5330105,10.808586,7.8707876,4.835425,1.9070395,-0.66479224,-2.624283,-3.8274837,-4.3348017,-4.384829,-4.295056,-4.3520193,-4.7509327,-5.541244,-6.6046667,-7.7514133,-8.829337,-9.743886,-10.441598,-10.930255,-11.295224,-11.654785,-12.090102,-12.606502,-13.141153,-13.522606,-13.394969,-12.2836485,-9.765153,-5.6633644,-0.19872497,6.047579,12.145841,16.972942,19.758923,20.405329,19.412354,17.55486,15.418913,13.303621,11.30438,9.274358,7.0195,4.558068,2.080935,-0.14958225,-1.886964,-3.0145485,-3.5881472,-3.7876694,-3.833437,-3.9394016,-4.2429366,-4.741039,-5.333314,-5.924183,-6.4697127,-6.925235,-7.2340083,-7.3847528,-7.4501343,-7.592099,-7.9500976,-8.5307255,-9.230849,-9.844372,-10.039642,-9.409402,-7.5734506,-4.3061805,0.31716257,5.7954035,11.232135,15.622444,18.221085,18.810379,17.77124,15.842216,13.731338,11.82946,10.149499,8.525716,6.8086,4.8979716,2.7760565,0.5886534,-1.4062204,-3.012113,-4.1785893,-4.9844933,-5.576773,-6.0910687,-6.5738764,-6.9711275,-7.2216516,-7.3262286,-7.334108,-7.2875714,-7.1940603,-7.088857,-7.071302,-7.216717,-7.5340805,-8.017613,-8.628348,-9.211337,-9.469835,-8.982945,-7.2832556,-4.0737185,0.511815,5.828195,10.872674,14.60822,16.392067,16.211857,14.561604,12.172932,9.734454,7.655423,6.009722,4.668414,3.4234898,2.0952468,0.6490425,-0.7812631,-1.9528722,-2.681118,-2.9512553,-2.8777504,-2.6703558,-2.5498567,-2.655715,-3.0219936,-3.5940344,-4.278233,-4.970277,-5.5913677,-6.1156397,-6.53985,-6.875087,-7.176503,-7.5276313,-7.982721,-8.494246,-8.863962,-8.798147,-7.9581947,-5.960254,-2.516476,2.2802708,7.7994537,13.005268,16.818804,18.56283,18.22633,16.37123,13.795618,11.1866865,8.928145,7.0826545,5.4941397,3.9509473,2.3503628,0.7255236,-0.8119313,-2.0793724,-2.904121,-3.252708,-3.2380347,-3.0703192,-2.9991302,-3.1895993,-3.6460102,-4.2754273,-4.971357,-5.667146,-6.3329477,-6.927171,-7.4139585,-7.804729,-8.136154,-8.430757,-8.720574,-9.044117,-9.3495865,-9.442902,-8.962317,-7.435564,-4.5115495,-0.19156592,5.028173,10.209424,14.307482,16.59782,16.922998,15.647289,13.417077,10.906095,8.631751,6.813032,5.3431807,3.9797034,2.5847406,1.1316028,-0.34590873,-1.6999588,-2.733861,-3.3217502,-3.4688027,-3.3204267,-3.0701742,-2.8907053,-2.9061115,-3.15967,-3.6268547,-4.231259,-4.8782063,-5.490424,-6.009193,-6.42873,-6.7794833,-7.103346,-7.4724965,-7.9201455,-8.396046,-8.750171,-8.711962,-7.920196,-5.975428,-2.5993388,2.1580083,7.734609,13.072007,17.018654,18.81833,18.377401,16.252443,13.348814,10.44621,7.917433,5.799361,3.9503906,2.2003953,0.49308386,-1.1092523,-2.4824848,-3.4818163,-4.0130205,-4.0876465,-3.8234353,-3.4101963,-3.058848,-2.931107,-3.0990555,-3.5490048,-4.1920323,-4.880149,-5.477223,-5.9277506,-6.2528186,-6.5553627,-6.9670916,-7.5441546,-8.249509,-8.992541,-9.632358,-9.937678,-9.578261,-8.139898,-5.268181,-0.9195492,4.4822397,10.058577,14.74646,17.6727,18.43076,17.21991,14.751254,11.874094,9.205466,6.998775,5.194607,3.579666,1.954216
-0.531885,6.631216,13.681498,19.678703,23.774218,25.608486,25.454576,23.946115,21.738085,19.269552,16.691034,13.949553,10.977756,7.839429,4.742757,1.9617507,-0.27424788,-1.8663378,-2.8603072,-3.43093,-3.8320782,-4.298553,-4.9654818,-5.85738,-6.9328485,-8.117569,-9.349267,-10.57966,-11.7263565,-12.716642,-13.527926,-14.170788,-14.706633,-15.224935,-15.772772,-16.331196,-16.784409,-16.871517,-16.163982,-14.12038,-10.279665,-4.5300393,2.7236161,10.581901,17.854935,23.472357,26.883625,28.10666,27.532314,25.767544,23.421345,20.865812,18.172146,15.237373,11.993195,8.524753,5.0677147,1.920069,-0.6444013,-2.4587872,-3.5661364,-4.228768,-4.7623243,-5.3595004,-6.104203,-7.029951,-8.1396265,-9.404025,-10.71813,-11.9466305,-13.025747,-13.969556,-14.780181,-15.440302,-15.980281,-16.464943,-16.944168,-17.419037,-17.79751,-17.819876,-16.998539,-14.706461,-10.434917,-4.0521803,3.9504457,12.472121,20.235163,26.169981,29.69892,30.866947,30.155514,28.209723,25.596312,22.647968,19.48267,16.118805,12.514742,8.713989,5.0077186,1.7583699,-0.79095936,-2.5651996,-3.6808329,-4.3460264,-4.802105,-5.3012934,-6.0123305,-6.9813795,-8.126945,-9.332177,-10.55601,-11.748716,-12.811723,-13.696847,-14.404834,-14.951316,-15.395042,-15.809132,-16.224983,-16.61887,-16.90556,-16.868303,-16.072721,-13.949144,-10.048132,-4.329908,2.7125535,10.185613,17.024784,22.278997,25.383041,26.297487,25.453588,23.461758,20.861773,18.01802,15.056236,11.958721,8.74723,5.551983,2.6000462,0.13096954,-1.7042559,-2.8690438,-3.4646904,-3.7245517,-3.9229314,-4.279315,-4.8733916,-5.6560745,-6.554211,-7.5201654,-8.519328,-9.497291,-10.40221,-11.191752,-11.827822,-12.333209,-12.744033,-13.089028,-13.434361,-13.798313,-14.079579,-14.009864,-13.142685,-10.951217,-7.035928,-1.3894457,5.482966,12.661093,19.052143,23.710669,26.13666,26.401398,25.009981,22.589718,19.638369,16.459095,13.192437,9.858643,6.4793463,3.226213,0.40478715,-1.7388809,-3.1443152,-3.9129155,-4.2580347,-4.4367714,-4.659653,-5.0587707,-5.6951575,-6.5697246,-7.620058,-8.713079,-9.722721,-10.62934,-11.457065,-12.170242,-12.748284,-13.227957,-13.634422,-14.00089,-14.381432,-14.772713,-15.012513,-14.719643,-13.369794,-10.477881,-5.78168,0.5840082,8.000438,15.456144,21.810081,26.179201,28.196043,28.029415,26.237602,23.476498,20.255074,16.872091,13.454594,10.029881,6.621908,3.3490822,0.43053433,-1.9134982,-3.5586276,-4.5326014,-5.016521,-5.2714286,-5.543677,-5.997966,-6.7173605,-7.6836147,-8.766701,-9.871083,-10.95937,-11.945165,-12.780531,-13.479501,-14.039494,-14.493174,-14.913454,-15.351471,-15.781301,-16.06424,-15.942778,-14.985262,-12.6501465,-8.517524,-2.4878373,5.0587316,13.235463,20.799475,26.50715,29.669924,30.340311,29.045553,26.495611,23.33286,19.96097,16.534382,13.049413,9.47283,5.8787475,2.496082,-0.4060306,-2.6356604,-4.1273913,-4.9603004,-5.354411,-5.6080546,-5.9761667,-6.6013565,-7.486596,-8.539405,-9.664017,-10.764981,-11.779874,-12.704928,-13.516028,-14.1527405,-14.587609,-14.874279,-15.119978,-15.414532,-15.766588,-16.023228,-15.791309,-14.496494,-11.591807,-6.8297343,-0.45670038,6.8245053,14.048747,20.220787,24.56187,26.735455,26.890705,25.485216,23.113997,20.328987,17.441788,14.510337,11.496368,8.404685,5.333848,2.4621654,-0.02359223,-1.9880211,-3.3728805,-4.214866,-4.649767,-4.899656,-5.200255,-5.6904964,-6.3966804,-7.2763677,-8.263212,-9.288179,-10.241062,-11.015121,-11.586543,-11.988198,-12.281369,-12.573338,-12.944333,-13.367489,-13.756517,-13.965774,-13.723356,-12.633543,-10.2561,-6.2664275,-0.6688521,6.0524497,12.99303,19.076405,23.388504,25.476643,25.423496,23.718588,21.049036,18.018373,14.974789,12.005897,9.00812,5.935716,2.9363196,0.2589285,-1.85179,-3.2971783,-4.136872,-4.5146875,-4.6265817,-4.706731,-4.956976,-5.4295154,-6.09995,-6.9321585,-7.84488,-8.743029,-9.547837,-10.216028,-10.739591,-11.138711,-11.452334,-11.74641,-12.097015,-12.512981,-12.894692,-13.0171995,-12.517199,-10.942175,-7.910343,-3.2847948,2.718457,9.438498,15.866627,20.965384,24.024544,24.880623,23.850786,21.553955,18.654797,15.551018,12.395852,9.259017,6.173337,3.219254,0.5808711,-1.5320781,-3.027756,-3.9543421,-4.4184113,-4.5847764,-4.6554747,-4.814124,-5.1886196,-5.798676,-6.5999327,-7.5299463,-8.477458,-9.33527,-10.0478945,-10.611404,-11.069714,-11.444578,-11.743823,-12.031078,-12.375696,-12.763607,-13.0490055,-12.908187,-11.84882,-9.387736,-5.2708554,0.40189514,7.096107,13.908904,19.786497,23.837738,25.656895,25.390654,23.562023,20.84071,17.786083,14.6581545,11.514718,8.376475,5.2774196,2.3262818,-0.26998717,-2.2860982,-3.6084907,-4.3254757,-4.6542873,-4.8008804,-4.955397,-5.302018,-5.923925,-6.7691708,-7.7260838,-8.688452,-9.570536,-10.335218,-10.999582,-11.575173,-12.05654,-12.437028,-12.758402,-13.104414,-13.4732485,-13.741236,-13.658364,-12.832305,-10.777202,-7.0647845,-1.5941939,5.2128396,12.431014,18.896961,23.603556,26.033747,26.280626,24.854374,22.400698,19.488567,16.416138,13.254253,10.049259,6.847357,3.7212944,0.8319384,-1.6215557,-3.4656005,-4.62987,-5.192467,-5.3686686,-5.4578824,-5.701877,-6.2052665,-6.9748673,-7.953601,-9.023605,-10.034306,-10.8983555,-11.633226,-12.264438,-12.780897,-13.182338,-13.4896345,-13.765505,-14.077122,-14.380047,-14.468064,-13.999419,-12.515056,-9.499134,-4.6627226
-5.90857,-5.0989833,-4.7836266,-4.950994,-5.4741206,-6.1834126,-6.938783,-7.6926775,-8.492935,-9.445751,-10.60353,-11.839179,-12.819632,-13.075005,-12.072144,-9.277858,-4.340905,2.596804,10.700003,18.558529,24.582249,27.562956,27.137651,23.814798,18.63755,12.775927,7.187505,2.3885722,-1.4881959,-4.401671,-6.2832603,-7.1229615,-7.049335,-6.336749,-5.3646183,-4.5268784,-4.091839,-4.136717,-4.580773,-5.275953,-6.091598,-6.9474916,-7.8328643,-8.783335,-9.828298,-10.933201,-11.910633,-12.397826,-11.898657,-9.825743,-5.69816,0.5345897,8.25945,16.226515,22.89253,26.930466,27.683931,25.351772,20.808006,15.193595,9.503505,4.366503,0.08040562,-3.2528746,-5.5969353,-6.9102874,-7.2119274,-6.6944804,-5.730815,-4.7303114,-4.0132265,-3.7889447,-4.1038103,-4.8342814,-5.770418,-6.7174983,-7.6014824,-8.47641,-9.428971,-10.474339,-11.506258,-12.305573,-12.58571,-12.013397,-10.181373,-6.708796,-1.4925233,5.156878,12.437214,19.031153,23.56199,25.194914,23.805075,19.896395,14.445802,8.5722,3.1413004,-1.3521589,-4.6577544,-6.6760373,-7.4678483,-7.23981,-6.31781,-5.1036716,-3.98413,-3.2603815,-3.0266602,-3.1937718,-3.6273568,-4.182835,-4.780823,-5.432098,-6.174166,-7.0493574,-8.080699,-9.185459,-10.127929,-10.617507,-10.379069,-9.135342,-6.5698133,-2.3890254,3.3747344,10.122403,16.722021,21.793768,24.205906,23.464237,19.853952,14.342835,8.172261,2.387627,-2.371291,-5.791474,-7.749405,-8.33471,-7.836101,-6.681111,-5.3688726,-4.2932673,-3.6405213,-3.419748,-3.5257123,-3.8094192,-4.179087,-4.6524835,-5.280579,-6.088502,-7.0904427,-8.237285,-9.366549,-10.2524605,-10.583161,-9.91307,-7.7531424,-3.7443247,2.1071157,9.250288,16.590816,22.678185,26.163494,26.322628,23.306599,18.009619,11.65109,5.344113,-0.13448882,-4.3364,-7.07923,-8.400057,-8.495161,-7.7157874,-6.500491,-5.2688217,-4.3633094,-3.9362168,-3.932439,-4.207629,-4.6370006,-5.1647196,-5.780364,-6.5226326,-7.458292,-8.592408,-9.826713,-10.938471,-11.563977,-11.26223,-9.559431,-6.018702,-0.46433875,6.7805233,14.712164,21.768913,26.394659,27.630863,25.44859,20.641344,14.409437,7.9435034,2.1072686,-2.6458943,-6.1204333,-8.214238,-8.946962,-8.569143,-7.535926,-6.3416786,-5.344549,-4.7351274,-4.5756984,-4.8049903,-5.292242,-5.9290757,-6.6585536,-7.4659734,-8.384727,-9.451696,-10.643336,-11.809169,-12.60986,-12.56123,-11.103803,-7.7470703,-2.2940784,4.9710803,13.118516,20.67138,26.082254,28.285984,27.05053,22.979311,17.17478,10.80915,4.828081,-0.19690153,-4.058604,-6.730813,-8.216008,-8.564804,-7.974971,-6.8305335,-5.630753,-4.811674,-4.5292997,-4.6897964,-5.1635733,-5.840661,-6.619063,-7.4630175,-8.417472,-9.525379,-10.760434,-11.983619,-12.911304,-13.092355,-11.910659,-8.767364,-3.3425562,4.094632,12.457819,20.155102,25.656357,27.943933,26.830906,22.942179,17.398487,11.364851,5.7001343,0.87204045,-2.9486372,-5.7320676,-7.4562407,-8.102349,-7.804152,-6.8933506,-5.811824,-4.9820447,-4.6421022,-4.806406,-5.352909,-6.115763,-6.9583416,-7.811862,-8.719688,-9.78048,-10.981886,-12.16252,-13.018671,-13.105396,-11.878395,-8.786551,-3.5226245,3.7448125,12.165641,20.168472,26.079187,28.85524,28.27421,24.880919,19.765173,14.078359,8.637002,3.849179,-0.15096512,-3.2883477,-5.446145,-6.5589266,-6.704803,-6.172489,-5.389545,-4.7208657,-4.410207,-4.569862,-5.149631,-5.9959846,-6.9412093,-7.898062,-8.893262,-9.955837,-11.072461,-12.204725,-13.192999,-13.702212,-13.265636,-11.356387,-7.562105,-1.881263,5.1127133,12.4085245,18.766464,22.98048,24.310997,22.774996,19.054926,14.136801,8.930121,4.094035,0.0016584289,-3.1560001,-5.257915,-6.2925825,-6.3517017,-5.655213,-4.5882826,-3.5686958,-2.8968155,-2.6594756,-2.7892623,-3.1889684,-3.7439885,-4.3753448,-5.0711155,-5.856919,-6.7404556,-7.6748395,-8.606348,-9.426488,-9.930445,-9.849996,-8.849998,-6.5815506,-2.8022323,2.4352033,8.611142,14.691274,19.384712,21.680866,21.170835,18.122545,13.369955,7.9688044,2.8281875,-1.4884243,-4.6824155,-6.622078,-7.3513045,-7.0957007,-6.2203293,-5.1099133,-4.1129327,-3.481326,-3.2633374,-3.3685353,-3.691381,-4.1226463,-4.591359,-5.1232915,-5.796941,-6.67265,-7.7177916,-8.781256,-9.642775,-10.019471,-9.529478,-7.719408,-4.203361,1.2127213,8.231868,15.724012,22.056265,25.785372,26.142542,23.278927,18.091652,11.77419,5.441477,-0.087446906,-4.357841,-7.179781,-8.533885,-8.618143,-7.8087044,-6.5403895,-5.2876897,-4.437913,-4.119308,-4.25032,-4.661154,-5.1917653,-5.757546,-6.358511,-7.064102,-7.9550953,-9.049192,-10.250406,-11.323866,-11.905516,-11.52591,-9.671726,-5.9091167,-0.08247957,7.402373,15.456297,22.52687,27.079819,28.156107,25.755287,20.779926,14.537895,8.205533,2.5802479,-1.9379581,-5.2759724,-7.4174743,-8.282346,-7.980581,-6.9159775,-5.6399713,-4.61995,-4.090469,-4.0926003,-4.5195465,-5.1793365,-5.914014,-6.664184,-7.4588795,-8.394123,-9.539736,-10.815855,-12.015625,-12.84359,-12.875928,-11.569663,-8.38793,-3.0603724,4.153878,12.3246155,19.960009,25.463018,27.72718,26.51456,22.445211,16.679773,10.445426,4.6636763,-0.17050083,-3.8796716,-6.4166718,-7.787061,-8.08202,-7.556108,-6.6038365,-5.6337733,-4.9603977,-4.7118,-4.844736,-5.232762,-5.7445474,-6.3394003,-7.0722923,-8.03236,-9.239335,-10.574395,-11.857484,-12.837839,-13.09382,-12.101876,-9.335897,-4.40899
-8.257239,-8.098119,-7.9650984,-8.025639,-8.309088,-8.745114,-9.226448,-9.701637,-10.163944,-10.625517,-11.132718,-11.748806,-12.506021,-13.262232,-13.609279,-12.943304,-10.614764,-6.1843147,0.2765978,8.009102,15.704642,21.913603,25.559986,26.350903,24.786852,21.807959,18.352325,15.0368185,12.044128,9.24725,6.4602423,3.6152134,0.8308434,-1.6901779,-3.8038874,-5.4457417,-6.624672,-7.391654,-7.815445,-7.98212,-8.016902,-8.07735,-8.25834,-8.60708,-9.169046,-9.908473,-10.717876,-11.520091,-12.289772,-13.045101,-13.770126,-14.2541685,-14.030931,-12.442394,-8.89759,-3.2614663,3.9697561,11.772249,18.815538,23.816341,26.030304,25.519865,23.051533,19.679226,16.224358,13.080358,10.261897,7.571043,4.8109016,1.9065077,-1.028198,-3.724378,-5.8728366,-7.2854853,-7.9947596,-8.201046,-8.18828,-8.191874,-8.3249035,-8.625108,-9.059218,-9.547574,-10.038867,-10.5250225,-11.020059,-11.576148,-12.258632,-13.023048,-13.644727,-13.704668,-12.606924,-9.748768,-4.816283,1.9586082,9.715995,17.11926,22.763956,25.716084,25.861288,23.857185,20.730701,17.404772,14.390853,11.741831,9.233946,6.598705,3.7134316,0.69023097,-2.20293,-4.6683326,-6.471022,-7.5486746,-8.032153,-8.152949,-8.147046,-8.18678,-8.384796,-8.78769,-9.345988,-9.940642,-10.460949,-10.886551,-11.264426,-11.682588,-12.256807,-12.959807,-13.460233,-13.159461,-11.344997,-7.427242,-1.2975737,6.3952985,14.303255,20.813938,24.717249,25.696129,24.272465,21.408834,18.087103,14.950795,12.189417,9.63555,6.987532,4.094566,1.0690851,-1.8355168,-4.355026,-6.258929,-7.423512,-7.90036,-7.9106984,-7.7690134,-7.7324677,-7.913829,-8.295538,-8.802983,-9.373846,-9.938484,-10.468862,-11.037364,-11.72732,-12.535279,-13.349851,-13.878446,-13.577626,-11.781541,-7.9675403,-2.053232,5.388231,13.178504,19.842842,24.139147,25.57424,24.486551,21.742336,18.309235,14.913104,11.888509,9.208356,6.621184,3.8999662,1.0557772,-1.726219,-4.2090535,-6.145437,-7.367149,-7.8656273,-7.8394923,-7.63127,-7.526928,-7.6410284,-7.954376,-8.386016,-8.85125,-9.308311,-9.757911,-10.205319,-10.674319,-11.202271,-11.750641,-12.145153,-12.040686,-10.94349,-8.328868,-3.8357272,2.4647582,9.856012,16.977455,22.3206,24.974707,24.907347,22.720184,19.275774,15.47376,11.969091,8.934738,6.1938653,3.4819367,0.6683858,-2.1221647,-4.600156,-6.494511,-7.6791186,-8.196451,-8.217247,-7.988244,-7.760914,-7.6846924,-7.795579,-8.08858,-8.502316,-8.937119,-9.329928,-9.71157,-10.201791,-10.85853,-11.578514,-12.09932,-12.00513,-10.741669,-7.719367,-2.6380844,4.198983,11.817713,18.766712,23.644947,25.646843,24.836847,22.04733,18.377932,14.681316,11.355115,8.433993,5.7438073,3.067804,0.31901744,-2.404304,-4.8509874,-6.759575,-7.9753766,-8.479937,-8.427396,-8.099392,-7.7845216,-7.6724024,-7.820666,-8.17756,-8.627773,-9.068865,-9.463453,-9.845791,-10.313229,-10.952039,-11.699299,-12.249187,-12.058993,-10.4700575,-6.951454,-1.3907319,5.692364,13.168202,19.616695,23.796541,25.126825,23.90798,21.00387,17.360762,13.7412615,10.551463,7.8069215,5.278617,2.7021892,-0.023538744,-2.7613156,-5.2198815,-7.1125593,-8.252529,-8.632151,-8.465912,-8.075919,-7.773213,-7.7211704,-7.8918757,-8.197893,-8.562618,-8.929507,-9.271986,-9.64694,-10.162828,-10.854475,-11.59199,-11.997211,-11.521624,-9.588098,-5.7925115,-0.15102004,6.7870474,13.88782,19.740688,23.277761,24.150564,22.716475,19.788895,16.313784,13.027575,10.231122,7.7856154,5.3407645,2.6601834,-0.19496861,-2.9359102,-5.2448683,-6.903239,-7.826111,-8.067443,-7.8498163,-7.5130544,-7.3171444,-7.3499527,-7.594251,-7.9845695,-8.427154,-8.830559,-9.179504,-9.548193,-9.999414,-10.541304,-11.109362,-11.436988,-10.999296,-9.132003,-5.3359103,0.3270439,7.1491685,13.9861965,19.587843,22.998096,23.859783,22.522356,19.824818,16.6233,13.462056,10.522426,7.711554,4.852917,1.9037279,-0.988405,-3.584752,-5.660374,-7.0707054,-7.802493,-7.986749,-7.867181,-7.688501,-7.568421,-7.549057,-7.665632,-7.912756,-8.231825,-8.54711,-8.826577,-9.113021,-9.485972,-9.964969,-10.444527,-10.671905,-10.22636,-8.554288,-5.1816783,-0.051575262,6.29143,12.781571,18.147875,21.371151,22.08268,20.61441,17.721352,14.321069,11.154168,8.457903,6.0868998,3.83012,1.555649,-0.73709923,-2.9058232,-4.7456255,-6.070555,-6.771726,-6.9057,-6.704893,-6.438456,-6.2928834,-6.3598056,-6.613662,-6.9498515,-7.3027363,-7.6564264,-8.01107,-8.3963785,-8.855358,-9.401715,-9.946282,-10.196071,-9.66466,-7.8289175,-4.3295736,0.79807717,6.9527917,13.062486,17.927078,20.645039,20.936672,19.21458,16.331812,13.136753,10.173773,7.607076,5.2914004,3.0226848,0.73328185,-1.5117795,-3.5413115,-5.140349,-6.1596594,-6.586108,-6.562157,-6.3296876,-6.115247,-6.0598483,-6.2081523,-6.5022078,-6.859393,-7.240967,-7.6105356,-7.9497685,-8.321005,-8.812763,-9.400002,-9.89024,-9.924628,-8.984657,-6.5658073,-2.4436057,3.1232195,9.306096,14.92997,18.912144,20.631813,20.120358,17.980692,15.060474,12.0815,9.40675,7.049374,4.8655505,2.7088528,0.5111061,-1.6528554,-3.5891013,-5.090258,-6.0390067,-6.453503,-6.4729714,-6.3001246,-6.1261153,-6.081837,-6.21581,-6.5113373,-6.901779,-7.3000035,-7.674411,-8.066685,-8.533098,-9.069345,-9.565611,-9.782253,-9.34207,-7.797224,-4.80786,-0.36263943
-8.66194,-9.730486,-10.685341,-11.509993,-12.2195,-12.815215,-13.294049,-13.674323,-13.980786,-14.22613,-14.421178,-14.573205,-14.595142,-14.21514,-12.989124,-10.46901,-6.403458,-0.89208925,5.555267,12.155715,18.016432,22.353996,24.7566,25.264936,24.287981,22.356735,19.906422,17.168505,14.197341,11.047692,7.8472733,4.7843575,2.1019857,-0.005612207,-1.5064417,-2.4994204,-3.1219752,-3.534714,-3.9234774,-4.45264,-5.1939917,-6.111279,-7.1356273,-8.185625,-9.15195,-9.978109,-10.677038,-11.266692,-11.757114,-12.146044,-12.440761,-12.692347,-12.967344,-13.28738,-13.580031,-13.64844,-13.169764,-11.725512,-8.92386,-4.6097555,1.0435817,7.5179296,13.966341,19.448877,23.248447,25.057419,25.001873,23.53499,21.212467,18.457052,15.510003,12.467843,9.379471,6.3584933,3.5721307,1.2045288,-0.6196075,-1.8908848,-2.692785,-3.2124786,-3.6622992,-4.190597,-4.872096,-5.693479,-6.606758,-7.567919,-8.526643,-9.431114,-10.250774,-10.986664,-11.616155,-12.086689,-12.410727,-12.682499,-12.972333,-13.307352,-13.678909,-13.952524,-13.851726,-12.981589,-10.873963,-7.17989,-1.9201859,4.433325,11.104383,17.176203,21.801079,24.512333,25.32728,24.57974,22.746698,20.30111,17.554092,14.62512,11.540506,8.379868,5.3191085,2.5728364,0.341392,-1.2933497,-2.3967438,-3.1059353,-3.5947986,-4.0605354,-4.6766224,-5.5208774,-6.552861,-7.66106,-8.7385025,-9.7402115,-10.6616955,-11.49027,-12.201394,-12.774037,-13.197572,-13.490815,-13.742742,-14.062133,-14.465102,-14.835702,-14.897308,-14.240413,-12.443167,-9.148652,-4.220126,2.081593,9.104872,15.882376,21.398575,25.016771,26.613165,26.460363,25.064917,22.930828,20.409101,17.670792,14.73142,11.566071,8.245102,4.9791174,2.071045,-0.21505065,-1.7864919,-2.7661886,-3.3838797,-3.8551915,-4.3798304,-5.101774,-6.053171,-7.166656,-8.336066,-9.473871,-10.489269,-11.328549,-12.036839,-12.671005,-13.218149,-13.639382,-13.9406,-14.187357,-14.434441,-14.650996,-14.717469,-14.367659,-13.165931,-10.67837,-6.6855006,-1.3645171,4.7227626,10.856784,16.300919,20.405476,22.795994,23.499361,22.892138,21.454172,19.550789,17.386272,14.997756,12.351456,9.498736,6.581173,3.790539,1.3544539,-0.5392914,-1.8332386,-2.6334252,-3.1447713,-3.5733776,-4.0794954,-4.7489624,-5.579048,-6.5058312,-7.4533825,-8.370368,-9.225532,-9.977962,-10.590959,-11.058356,-11.397741,-11.665572,-11.928756,-12.2085,-12.488903,-12.702509,-12.670236,-12.089755,-10.606567,-7.926973,-3.9400108,1.1773065,6.9326663,12.581779,17.293554,20.444813,21.83441,21.652874,20.336447,18.367723,16.07985,13.614997,10.995384,8.243787,5.500954,2.9921303,0.905862,-0.6736372,-1.759646,-2.4424157,-2.8819892,-3.2458446,-3.6436357,-4.1599755,-4.8568068,-5.7132998,-6.6272354,-7.4847717,-8.244522,-8.921201,-9.503101,-9.957221,-10.283084,-10.523172,-10.735456,-10.984398,-11.302426,-11.644986,-11.868615,-11.704533,-10.819651,-8.884761,-5.645358,-1.0892254,4.422804,10.178783,15.328059,19.140432,21.236074,21.65721,20.707024,18.83748,16.504148,13.98628,11.378423,8.67971,5.9353747,3.3139834,1.0733931,-0.5838054,-1.6759833,-2.3611486,-2.797075,-3.136143,-3.509321,-4.008278,-4.66815,-5.444536,-6.258699,-7.05828,-7.825129,-8.552547,-9.218797,-9.779681,-10.19242,-10.475091,-10.706023,-10.948195,-11.235488,-11.555676,-11.798895,-11.748279,-11.080292,-9.370132,-6.240987,-1.7009361,3.7889485,9.536023,14.73167,18.654976,20.922384,21.540026,20.819185,19.210407,17.124681,14.810959,12.367198,9.823004,7.2058005,4.6301055,2.322079,0.45719582,-0.92537135,-1.8375,-2.378244,-2.7586927,-3.172829,-3.7045438,-4.365353,-5.145938,-6.0057774,-6.90231,-7.784786,-8.592852,-9.301694,-9.880203,-10.30355,-10.605234,-10.844223,-11.081676,-11.3499155,-11.634453,-11.875288,-11.921847,-11.4634075,-10.060419,-7.3681946,-3.3579535,1.668448,7.1244106,12.233476,16.272394,18.804092,19.78954,19.50496,18.363699,16.74012,14.856515,12.835365,10.701815,8.406691,5.978738,3.594579,1.5186447,-0.057227157,-1.1108439,-1.7594112,-2.1958814,-2.6077805,-3.1380835,-3.841021,-4.6724935,-5.5676975,-6.4480777,-7.2559986,-8.003579,-8.706931,-9.3513,-9.884081,-10.26408,-10.528875,-10.745779,-10.970342,-11.224201,-11.46445,-11.606146,-11.427343,-10.515383,-8.501943,-5.2850842,-1.0161654,3.9881227,9.170918,13.722672,16.965778,18.651997,18.919466,18.177328,16.886255,15.389233,13.842514,12.203558,10.371938,8.307321,6.0790887,3.8695936,1.913077,0.41682887,-0.5662628,-1.1755009,-1.6119037,-2.0555556,-2.6368191,-3.3808284,-4.2347116,-5.1322894,-6.012558,-6.81948,-7.524913,-8.145144,-8.671672,-9.076807,-9.382068,-9.655348,-9.951617,-10.26212,-10.561125,-10.799323,-10.870365,-10.572671,-9.544012,-7.4389367,-4.1808724,-0.008874575,4.5881677,8.968674,12.509297,14.796095,15.722717,15.516568,14.615218,13.408529,12.073771,10.628424,9.056149,7.358241,5.577177,3.7952344,2.1282358,0.7259974,-0.27563706,-0.8570029,-1.1636167,-1.3931438,-1.7015432,-2.1829426,-2.8354242,-3.6078472,-4.427301,-5.2109804,-5.925028,-6.551161,-7.0602646,-7.4533577,-7.7777677,-8.096365,-8.427834,-8.72913,-8.959493,-9.145023,-9.328041,-9.423662,-9.133787,-8.091933,-6.0590277,-2.9465582,1.158815,5.8846855,10.487408,14.074409,16.080868,16.500628,15.759712,14.413548,12.890188,11.386638,9.8875885,8.287787,6.543185,4.7363296,3.0295887
-1.928713,-2.0834627,-2.2484057,-2.6296313,-3.303216,-4.236882,-5.35547,-6.5828795,-7.8599377,-9.124567,-10.296065,-11.295046,-12.097947,-12.739123,-13.25656,-13.703249,-14.162375,-14.689549,-15.260228,-15.766835,-15.947565,-15.294592,-13.194997,-9.209581,-3.287851,4.0576897,11.762177,18.523363,23.254156,25.46664,25.397686,23.807867,21.57182,19.312853,17.259205,15.342692,13.358827,11.110035,8.550787,5.8397756,3.2942321,1.2343369,-0.17407185,-0.9721379,-1.3980048,-1.7328335,-2.1951666,-2.931662,-3.9648445,-5.2209997,-6.5712433,-7.881379,-9.081537,-10.1655245,-11.150391,-12.03437,-12.802469,-13.464154,-14.057106,-14.60695,-15.135345,-15.647835,-16.027649,-15.967641,-14.966268,-12.454917,-8.055147,-1.8321253,5.521439,12.860855,18.980534,22.90747,24.296064,23.576094,21.60181,19.226831,16.990822,15.003444,13.088096,11.013562,8.656653,6.087765,3.55452,1.3737679,-0.20063251,-1.1137383,-1.5349919,-1.745997,-2.002675,-2.45764,-3.1686182,-4.109901,-5.2063017,-6.3760796,-7.521206,-8.54963,-9.42858,-10.18898,-10.858169,-11.443559,-11.965116,-12.429878,-12.861706,-13.310162,-13.796267,-14.233526,-14.309035,-13.534794,-11.401451,-7.5432377,-1.9552296,4.8659825,11.915422,17.945528,21.900068,23.314041,22.482536,20.195732,17.341066,14.585348,12.199066,10.101407,8.033429,5.8338385,3.6008744,1.5740777,-0.015898323,-1.0488302,-1.5719187,-1.761827,-1.8293078,-1.9642127,-2.3260808,-2.9821126,-3.9032326,-4.987906,-6.084835,-7.078061,-7.9248624,-8.662271,-9.354869,-10.016433,-10.603343,-11.071141,-11.456719,-11.830376,-12.231109,-12.677204,-13.077704,-13.13221,-12.34343,-10.183668,-6.3396125,-0.8462117,5.8546324,12.82432,18.78952,22.654531,23.9335,22.912647,20.437275,17.449078,14.6368475,12.271547,10.233308,8.227412,6.054445,3.7713559,1.6410222,-0.05572347,-1.1472352,-1.6482564,-1.7841287,-1.8456333,-2.0534132,-2.5202298,-3.2626786,-4.245836,-5.3653555,-6.4791493,-7.48843,-8.367707,-9.148713,-9.849058,-10.456545,-10.949199,-11.322865,-11.623961,-11.928012,-12.310981,-12.776753,-13.1926365,-13.227082,-12.357925,-10.05902,-5.972601,-0.15620163,6.732695,13.598836,19.20611,22.641247,23.644615,22.577112,20.22812,17.462318,14.892206,12.703201,10.71697,8.6638,6.406167,4.0447683,1.8575338,0.10644771,-1.0946004,-1.7747837,-2.071652,-2.2177017,-2.4349954,-2.8498778,-3.5197823,-4.435342,-5.520694,-6.6595693,-7.7565036,-8.780937,-9.727519,-10.5892935,-11.342747,-11.971651,-12.4955015,-12.939126,-13.33456,-13.728988,-14.151386,-14.516518,-14.516115,-13.651575,-11.366058,-7.259291,-1.3671789,5.724672,12.978693,19.144836,23.19871,24.755445,24.142586,22.162155,19.690151,17.33707,15.326451,13.578313,11.840887,9.842104,7.48852,4.9296656,2.5027032,0.5898049,-0.6210244,-1.2202883,-1.4779772,-1.7160889,-2.1956365,-3.0397918,-4.209147,-5.544854,-6.878427,-8.121176,-9.241866,-10.235664,-11.1068945,-11.854544,-12.514447,-13.116377,-13.638189,-14.103337,-14.598383,-15.173284,-15.761654,-16.105055,-15.733392,-14.071398,-10.662312,-5.403763,1.3771721,8.880178,15.867603,21.117096,23.966969,24.482403,23.280674,21.192438,18.924,16.795622,14.762582,12.666874,10.397186,7.9509444,5.49193,3.3245742,1.7012575,0.6805981,0.13159083,-0.19904666,-0.52765846,-0.96388304,-1.5896859,-2.4528055,-3.5109303,-4.6880054,-5.947857,-7.267682,-8.578505,-9.778363,-10.79644,-11.624335,-12.280251,-12.792376,-13.246288,-13.763544,-14.431842,-15.254971,-16.066902,-16.472548,-15.87944,-13.651448,-9.404809,-3.260945,4.113427,11.618209,17.967463,22.168936,23.906841,23.551521,21.849556,19.536777,17.117043,14.780302,12.489589,10.1539755,7.722314,5.2321362,2.853089,0.8387756,-0.63211423,-1.5423734,-2.0052888,-2.2121634,-2.4085796,-2.8347,-3.5715272,-4.500104,-5.4116607,-6.118772,-6.5712347,-6.878637,-7.21297,-7.755546,-8.631146,-9.839386,-11.271925,-12.74207,-14.060608,-15.137501,-15.977675,-16.55804,-16.68763,-15.978826,-13.938124,-10.156266,-4.554445,2.4514644,9.931309,16.628605,21.420273,23.763575,23.818283,22.292973,20.05926,17.748251,15.605047,13.564679,11.43682,9.086564,6.5577183,4.127416,2.2025244,1.1100165,0.9251622,1.4747534,2.450211,3.4157298,3.8630157,3.3807201,1.7884023,-0.7937787,-3.9761212,-7.224721,-10.058988,-12.180251,-13.51621,-14.216244,-14.5577345,-14.8341465,-15.212319,-15.713307,-16.291645,-16.842402,-17.21372,-17.154469,-16.269245,-14.072299,-10.137567,-4.3829117,2.7481766,10.351392,17.256346,22.36002,25.050013,25.413086,24.100327,21.958298,19.632008,17.378,15.121591,12.6556,9.848748,6.79737,3.811286,1.2655396,-0.53732634,-1.5415667,-1.9713461,-2.1400945,-2.3277438,-2.7302473,-3.4379585,-4.4389024,-5.640443,-6.9404693,-8.256999,-9.539531,-10.748356,-11.814806,-12.702514,-13.436751,-14.035105,-14.512688,-14.945343,-15.41049,-15.922739,-16.464573,-16.910036,-16.893799,-15.85279,-13.160405,-8.386182,-1.7021451,6.0320687,13.607544,19.803905,23.675846,24.95258,24.149801,22.15504,19.78301,17.548525,15.606725,13.83804,12.059552,10.249593,8.600303,7.3682466,6.6927996,6.533391,6.6380386,6.5694537,5.922186,4.566541,2.6417305,0.40258047,-1.8994536,-4.106646,-6.1511164,-8.013867,-9.717523,-11.313838,-12.843345,-14.261278,-15.43708,-16.252369,-16.687935,-16.850618,-16.939207,-17.134647,-17.447464,-17.650988,-17.298813,-15.794073,-12.562224,-7.3489733
-2.4878373,5.0587316,13.235463,20.799475,26.50715,29.669924,30.340311,29.045553,26.495611,23.33286,19.96097,16.534382,13.049413,9.47283,5.8787475,2.496082,-0.4060306,-2.6356604,-4.1273913,-4.9603004,-5.354411,-5.6080546,-5.9761667,-6.6013565,-7.486596,-8.539405,-9.664017,-10.764981,-11.779874,-12.704928,-13.516028,-14.1527405,-14.587609,-14.874279,-15.119978,-15.414532,-15.766588,-16.023228,-15.791309,-14.496494,-11.591807,-6.8297343,-0.45670038,6.8245053,14.048747,20.220787,24.56187,26.735455,26.890705,25.485216,23.113997,20.328987,17.441788,14.510337,11.496368,8.404685,5.333848,2.4621654,-0.02359223,-1.9880211,-3.3728805,-4.214866,-4.649767,-4.899656,-5.200255,-5.6904964,-6.3966804,-7.2763677,-8.263212,-9.288179,-10.241062,-11.015121,-11.586543,-11.988198,-12.281369,-12.573338,-12.944333,-13.367489,-13.756517,-13.965774,-13.723356,-12.633543,-10.2561,-6.2664275,-0.6688521,6.0524497,12.99303,19.076405,23.388504,25.476643,25.423496,23.718588,21.049036,18.018373,14.974789,12.005897,9.00812,5.935716,2.9363196,0.2589285,-1.85179,-3.2971783,-4.136872,-4.5146875,-4.6265817,-4.706731,-4.956976,-5.4295154,-6.09995,-6.9321585,-7.84488,-8.743029,-9.547837,-10.216028,-10.739591,-11.138711,-11.452334,-11.74641,-12.097015,-12.512981,-12.894692,-13.0171995,-12.517199,-10.942175,-7.910343,-3.2847948,2.718457,9.438498,15.866627,20.965384,24.024544,24.880623,23.850786,21.553955,18.654797,15.551018,12.395852,9.259017,6.173337,3.219254,0.5808711,-1.5320781,-3.027756,-3.9543421,-4.4184113,-4.5847764,-4.6554747,-4.814124,-5.1886196,-5.798676,-6.5999327,-7.5299463,-8.477458,-9.33527,-10.0478945,-10.611404,-11.069714,-11.444578,-11.743823,-12.031078,-12.375696,-12.763607,-13.0490055,-12.908187,-11.84882,-9.387736,-5.2708554,0.40189514,7.096107,13.908904,19.786497,23.837738,25.656895,25.390654,23.562023,20.84071,17.786083,14.6581545,11.514718,8.376475,5.2774196,2.3262818,-0.26998717,-2.2860982,-3.6084907,-4.3254757,-4.6542873,-4.8008804,-4.955397,-5.302018,-5.923925,-6.7691708,-7.7260838,-8.688452,-9.570536,-10.335218,-10.999582,-11.575173,-12.05654,-12.437028,-12.758402,-13.104414,-13.4732485,-13.741236,-13.658364,-12.832305,-10.777202,-7.0647845,-1.5941939,5.2128396,12.431014,18.896961,23.603556,26.033747,26.280626,24.854374,22.400698,19.488567,16.416138,13.254253,10.049259,6.847357,3.7212944,0.8319384,-1.6215557,-3.4656005,-4.62987,-5.192467,-5.3686686,-5.4578824,-5.701877,-6.2052665,-6.9748673,-7.953601,-9.023605,-10.034306,-10.8983555,-11.633226,-12.264438,-12.780897,-13.182338,-13.4896345,-13.765505,-14.077122,-14.380047,-14.468064,-13.999419,-12.515056,-9.499134,-4.6627226,1.8232852,9.298836,16.670301,22.762743,26.73668,28.318336,27.797626,25.815302,23.080074,20.085213,17.03353,13.928451,10.687095,7.3394485,4.0586405,1.0556096,-1.4533619,-3.287925,-4.4038424,-4.9526978,-5.2026367,-5.4147286,-5.7609167,-6.306921,-7.0647025,-8.018609,-9.085604,-10.123872,-11.016598,-11.707967,-12.196928,-12.54017,-12.830559,-13.139093,-13.462211,-13.741242,-13.89877,-13.750167,-12.902329,-10.8708515,-7.332471,-2.356475,3.5389616,9.615381,15.105226,19.282932,21.658842,22.163553,21.130833,19.11356,16.627882,14.002848,11.397167,8.838072,6.302781,3.8450358,1.6015966,-0.30915448,-1.8144686,-2.8355832,-3.3693166,-3.5586727,-3.6300325,-3.7961226,-4.1523356,-4.711107,-5.442065,-6.252414,-7.051843,-7.787665,-8.423989,-8.925205,-9.276594,-9.530322,-9.762049,-10.015963,-10.306587,-10.586525,-10.748551,-10.6181135,-9.859693,-8.02718,-4.793455,-0.15962584,5.436606,11.172675,16.103516,19.486942,21.001768,20.783085,19.260954,16.968086,14.394219,11.80945,9.232718,6.6112595,3.9832277,1.5223972,-0.56418085,-2.1533911,-3.1892207,-3.7032259,-3.8700547,-3.916845,-4.009565,-4.245928,-4.6671004,-5.260304,-5.966555,-6.7111506,-7.450034,-8.14473,-8.748608,-9.238097,-9.614775,-9.8996,-10.133435,-10.377692,-10.657578,-10.913963,-10.984908,-10.573378,-9.2722,-6.6637273,-2.5392084,2.8914275,8.955695,14.651641,19.009697,21.476824,22.041887,21.084341,19.12552,16.6617,14.039632,11.35575,8.586038,5.788487,3.1140795,0.7361675,-1.2378505,-2.740106,-3.7019506,-4.153209,-4.2450953,-4.214268,-4.307872,-4.656248,-5.2452946,-5.972777,-6.744199,-7.5154576,-8.253748,-8.909117,-9.430524,-9.816001,-10.1072645,-10.364125,-10.635855,-10.926726,-11.216862,-11.448964,-11.417932,-10.708397,-8.856301,-5.560605,-0.80889106,5.0106087,11.127556,16.581356,20.51428,22.45714,22.467972,21.02232,18.741877,16.150171,13.531948,10.927596,8.271118,5.544762,2.83531,0.3364704,-1.7046132,-3.1291351,-3.9527407,-4.322621,-4.448628,-4.5462976,-4.776871,-5.2236686,-5.892498,-6.705341,-7.5499973,-8.356189,-9.092071,-9.737708,-10.2862835,-10.748308,-11.132102,-11.436145,-11.684762,-11.922551,-12.151959,-12.226492,-11.801796,-10.461918,-7.8317223,-3.67905,1.8770344,8.260486,14.522828,19.625566,22.835112,23.947002,23.267235,21.418041,19.023077,16.455217,13.845541,11.216488,8.54371,5.8076587,3.0740726,0.5157895,-1.6382257,-3.210276,-4.1792746,-4.6765556,-4.899699,-5.045718,-5.300575,-5.7633,-6.3911204,-7.129203,-7.957668,-8.8188505,-9.623171,-10.289852,-10.785834,-11.122105,-11.349099,-11.54451,-11.776589,-12.077278,-12.363472,-12.405041,-11.849413,-10.281931,-7.3512435,-2.9131944
-3.58054,-3.6331668,-3.71799,-3.850868,-4.0293794,-4.229359,-4.420612,-4.624575,-4.9090075,-5.3168106,-5.824603,-6.394544,-7.0036116,-7.590433,-8.038552,-8.106417,-7.419522,-5.5860424,-2.3802054,2.0172439,7.0331254,11.818962,15.431369,17.241917,17.157875,15.597809,13.250437,10.697137,8.24227,5.952526,3.7833014,1.691639,-0.27880576,-1.9781923,-3.2483134,-4.0208054,-4.3270106,-4.2731366,-4.0431905,-3.8563247,-3.853481,-4.057076,-4.4296002,-4.9052243,-5.3847713,-5.7915726,-6.1189632,-6.3996544,-6.664535,-6.9040265,-7.0735188,-7.1643944,-7.233024,-7.3385725,-7.5007424,-7.6860647,-7.731417,-7.3329835,-6.1349664,-3.7758849,-0.067262925,4.7098036,9.842967,14.459056,17.729567,19.162924,18.787067,17.033808,14.526366,11.813904,9.209798,6.793356,4.485369,2.2343934,0.11363367,-1.7144884,-3.0538754,-3.786679,-3.985017,-3.8794224,-3.7137961,-3.6450887,-3.725882,-3.9575648,-4.335621,-4.807892,-5.2642875,-5.632769,-5.91658,-6.134542,-6.2810173,-6.307703,-6.1819205,-5.9581366,-5.7153068,-5.5076747,-5.36154,-5.215122,-4.9030404,-4.204924,-2.8724873,-0.64704204,2.5851533,6.515977,10.4359255,13.588536,15.436688,15.782081,14.823166,13.007169,10.774081,8.455173,6.216828,4.088275,2.0779524,0.17195371,-1.5895824,-3.063987,-4.1231017,-4.708953,-4.873809,-4.780298,-4.6225767,-4.556744,-4.665154,-4.959957,-5.3989606,-5.923023,-6.4643555,-6.9511485,-7.366763,-7.7465053,-8.102358,-8.397217,-8.591062,-8.6947155,-8.782945,-8.94725,-9.194989,-9.40201,-9.36068,-8.760168,-7.1224656,-3.9086022,1.1819354,7.901288,15.309382,21.956615,26.4961,28.278429,27.452438,24.745455,21.102032,17.279211,13.618224,10.151547,6.845641,3.684775,0.7027933,-1.9461701,-3.9920785,-5.2326217,-5.714926,-5.679102,-5.411394,-5.134959,-4.9942446,-5.072268,-5.381672,-5.8922973,-6.523019,-7.175713,-7.787429,-8.329399,-8.8239155,-9.267858,-9.601031,-9.802344,-9.8866005,-9.88433,-9.873294,-9.930081,-10.043232,-10.092372,-9.796552,-8.678996,-6.250814,-2.3259637,2.6892474,7.947201,12.71566,16.445667,18.609362,18.963531,17.732634,15.447309,12.690682,9.919936,7.370435,5.0592604,2.9376926,1.0037923,-0.68246514,-2.002048,-2.866191,-3.2980456,-3.4164395,-3.363502,-3.2706375,-3.2526398,-3.359192,-3.6017473,-3.96365,-4.3827066,-4.8179007,-5.2627573,-5.705623,-6.1060257,-6.444248,-6.7478976,-7.0285063,-7.267733,-7.4468837,-7.5977583,-7.7600513,-7.9281955,-8.072146,-8.02292,-7.4154205,-5.7462463,-2.4860082,2.631913,9.268577,16.28223,22.093937,25.48025,26.021877,24.115002,20.675104,16.641153,12.6612,9.04749,5.79232,2.7640834,-0.054082662,-2.537297,-4.4547644,-5.630946,-6.0846744,-5.98319,-5.617421,-5.289448,-5.180374,-5.3413534,-5.723595,-6.263439,-6.9152846,-7.6272106,-8.309369,-8.857977,-9.245909,-9.48274,-9.568487,-9.551204,-9.505206,-9.5076685,-9.65587,-10.0051985,-10.431619,-10.548488,-9.795124,-7.590135,-3.523374,2.3808632,9.5165205,16.759403,22.737709,26.32352,27.123589,25.533863,22.389051,18.567478,14.685446,11.023236,7.6280713,4.4358444,1.4185461,-1.3321495,-3.6220615,-5.2491307,-6.145991,-6.4047713,-6.242476,-5.9262457,-5.671104,-5.637159,-5.868861,-6.2824373,-6.78484,-7.3213477,-7.874365,-8.442199,-9.035736,-9.635808,-10.165411,-10.575471,-10.881909,-11.136125,-11.385833,-11.638672,-11.846583,-11.825968,-11.171695,-9.32969,-5.7857914,-0.33338565,6.6422086,14.129172,20.774559,25.343246,27.187246,26.437069,23.828146,20.308897,16.640066,13.215218,10.079363,7.083085,4.0972414,1.1346294,-1.610975,-3.8569605,-5.390287,-6.1668897,-6.3292236,-6.1428103,-5.904594,-5.825281,-5.966681,-6.294196,-6.751624,-7.301977,-7.9311447,-8.591585,-9.183363,-9.628156,-9.898827,-10.001644,-9.944593,-9.763005,-9.571599,-9.482804,-9.480715,-9.324881,-8.562529,-6.6782427,-3.2298622,1.9251609,8.3104105,14.856128,20.301865,23.685757,24.689407,23.620985,21.14704,17.974752,14.659214,11.512965,8.5856495,5.7950335,3.0676756,0.43203193,-1.9301801,-3.7706177,-4.937863,-5.4558935,-5.497179,-5.324919,-5.2034855,-5.30768,-5.672613,-6.2149806,-6.8315735,-7.4267974,-7.907143,-8.265111,-8.558996,-8.813735,-9.040194,-9.244709,-9.409948,-9.504815,-9.500212,-9.453839,-9.468774,-9.495943,-9.253015,-8.284751,-6.0599837,-2.179015,3.3337064,9.894361,16.370514,21.415733,24.128122,24.37603,22.65184,19.711405,16.288046,12.9392185,9.8544855,6.9508886,4.161671,1.5001724,-0.9398841,-2.965182,-4.38682,-5.1775465,-5.458816,-5.408516,-5.220487,-5.0614734,-5.0658345,-5.315323,-5.792776,-6.391941,-7.0141354,-7.6338177,-8.231201,-8.773502,-9.256361,-9.685048,-10.041694,-10.287562,-10.421394,-10.491211,-10.543009,-10.579683,-10.492036,-9.993207,-8.612855,-5.7983685,-1.1856965,5.0728,12.167199,18.826881,23.785685,26.22142,25.997765,23.665445,20.15339,16.326883,12.708468,9.457242,6.4937344,3.6941538,1.0249324,-1.4099351,-3.3445318,-4.549026,-5.0411096,-5.031401,-4.805187,-4.6165266,-4.635989,-4.909457,-5.3574877,-5.9021387,-6.4889493,-7.0659347,-7.6078534,-8.107834,-8.585959,-9.045919,-9.456682,-9.779299,-9.996858,-10.171201,-10.372412,-10.581768,-10.721111,-10.627437,-9.951765,-8.163573,-4.766549,0.4096122,7.007729,14.096659,20.390585,24.687767,26.325321,25.413214,22.687025,19.095787,15.388035,11.902382,8.658507,5.5795317,2.635741,-0.08247546
-5.234219,-5.1362977,-5.1735296,-5.4804063,-6.0880704,-6.906789,-7.7789755,-8.588901,-9.308412,-9.955399,-10.575815,-11.213101,-11.881698,-12.465752,-12.616599,-11.789722,-9.390631,-5.055231,1.0721263,8.217001,15.125181,20.458427,23.251005,23.27388,21.046978,17.486927,13.562206,9.989984,6.982107,4.3740764,1.9582435,-0.31183234,-2.3055482,-3.857478,-4.8522754,-5.278282,-5.2636905,-5.023419,-4.8093166,-4.823792,-5.127572,-5.6649165,-6.343644,-7.0690823,-7.7666492,-8.420197,-9.070026,-9.760158,-10.491403,-11.186963,-11.636332,-11.430489,-10.003188,-6.8332024,-1.7439508,4.872154,12.022577,18.300756,22.396341,23.636175,22.176334,18.876354,14.834849,10.893074,7.4363985,4.4592915,1.8074801,-0.62112683,-2.7808273,-4.4870796,-5.5673842,-5.958335,-5.756689,-5.2639003,-4.8536806,-4.789874,-5.1561456,-5.8580685,-6.710397,-7.5572186,-8.328745,-9.0342245,-9.73069,-10.4839325,-11.306554,-12.114675,-12.657065,-12.466214,-10.974317,-7.674442,-2.3564403,4.6018224,12.17078,18.81913,23.096933,24.378408,22.940193,19.687328,15.720636,11.841542,8.401159,5.395861,2.6862888,0.16902462,-2.1205432,-4.015488,-5.332231,-5.974213,-6.041996,-5.790014,-5.510168,-5.435028,-5.651779,-6.1232595,-6.745039,-7.4125795,-8.05895,-8.695255,-9.395035,-10.190266,-11.065254,-11.930772,-12.511414,-12.311048,-10.717683,-7.2181535,-1.6785225,5.3988633,12.87141,19.264465,23.297613,24.397705,22.832752,19.473568,15.384078,11.420197,8.009799,5.1341524,2.5882933,0.27048334,-1.8102156,-3.5473073,-4.781223,-5.4535766,-5.648185,-5.539198,-5.3420243,-5.2481666,-5.3774967,-5.772765,-6.399023,-7.1708913,-8.018818,-8.887262,-9.734465,-10.573084,-11.42308,-12.218194,-12.673773,-12.243077,-10.32377,-6.5020723,-0.75097793,6.354805,13.629319,19.636553,23.230387,23.98062,22.250904,18.9319,15.021324,11.276005,8.058632,5.346237,2.9024146,0.5642359,-1.6219672,-3.52114,-4.993463,-5.9478483,-6.4303894,-6.581353,-6.577147,-6.604674,-6.8070154,-7.251421,-7.9211392,-8.716828,-9.512928,-10.260476,-10.992219,-11.751622,-12.506765,-13.108842,-13.275534,-12.520052,-10.247108,-5.9913464,0.24817757,7.702682,15.092797,21.067284,24.485157,24.932259,22.922384,19.461246,15.566061,11.9313965,8.785315,6.0314713,3.5068567,1.1224443,-1.1100775,-3.0595524,-4.5250773,-5.3924537,-5.705009,-5.6403747,-5.4850354,-5.501964,-5.802491,-6.3661623,-7.1120925,-7.962081,-8.852438,-9.715803,-10.526438,-11.315156,-12.083749,-12.694055,-12.824691,-12.0148115,-9.740646,-5.623518,0.26700702,7.275868,14.244396,19.814,22.9265,23.244967,21.21022,17.779924,13.977022,10.442269,7.3590927,4.6579905,2.1848838,-0.15728207,-2.3193343,-4.11868,-5.3720737,-6.0004334,-6.070285,-5.801238,-5.474344,-5.3500347,-5.55282,-6.037318,-6.714602,-7.500813,-8.321317,-9.140901,-9.986941,-10.895912,-11.808521,-12.526226,-12.697646,-11.854749,-9.490145,-5.2100916,0.9987398,8.497811,15.926846,21.703564,24.736553,24.747873,22.28451,18.388859,14.09096,10.082714,6.6184893,3.624804,0.8971265,-1.6665009,-3.9110923,-5.5559096,-6.4282722,-6.5855513,-6.3012958,-5.935368,-5.7734866,-5.930185,-6.3759446,-7.0128784,-7.732283,-8.476871,-9.234172,-10.016805,-10.881693,-11.872732,-12.897514,-13.633317,-13.535668,-11.969164,-8.410613,-2.7083726,4.651289,12.535863,19.49343,24.207066,25.95084,24.834166,21.686176,17.620762,13.526237,9.819745,6.545232,3.582441,0.79623103,-1.7888288,-3.9666383,-5.5176034,-6.3413773,-6.529272,-6.347041,-6.10035,-6.0096116,-6.2192,-6.7594786,-7.5014963,-8.291866,-9.049784,-9.778091,-10.559746,-11.487125,-12.551611,-13.568883,-14.149015,-13.675064,-11.454748,-7.0579534,-0.5954771,7.207728,15.092575,21.54348,25.354658,26.08223,24.159761,20.630903,16.570993,12.689531,9.252414,6.1863055,3.2996442,0.49517167,-2.1299856,-4.327181,-5.8554215,-6.6482053,-6.8552046,-6.739628,-6.5730987,-6.592831,-6.942674,-7.6177435,-8.500116,-9.455565,-10.390644,-11.289158,-12.221031,-13.225118,-14.208792,-14.947485,-15.030277,-13.846451,-10.784937,-5.5326853,1.684317,9.938073,17.730932,23.558254,26.48578,26.42978,24.060394,20.417187,16.498735,12.914728,9.753635,6.810596,3.8984184,0.99968076,-1.7258593,-4.0215116,-5.6425185,-6.48486,-6.68326,-6.5601025,-6.467477,-6.649503,-7.181836,-8.016501,-9.045889,-10.1352825,-11.172617,-12.155072,-13.172145,-14.267703,-15.320623,-16.010035,-15.850258,-14.208306,-10.531247,-4.6197777,3.2026289,11.818213,19.57592,25.027683,27.436245,26.969637,24.467897,20.999851,17.423325,14.10392,10.985475,7.8361883,4.5423856,1.2469968,-1.7299552,-4.0477147,-5.538462,-6.237487,-6.3501425,-6.2392135,-6.258842,-6.594002,-7.269545,-8.213145,-9.292864,-10.3810425,-11.411494,-12.419562,-13.495793,-14.653125,-15.781226,-16.588745,-16.52752,-14.894841,-11.131454,-5.1594095,2.4537392,10.58111,17.826601,22.947266,25.294186,25.002445,22.811245,19.693878,16.427261,13.351035,10.438675,7.5361385,4.5742455,1.6664284,-0.93565,-3.0106401,-4.439793,-5.210968,-5.436884,-5.3944697,-5.447228,-5.791835,-6.4477096,-7.3664455,-8.436599,-9.546792,-10.624439,-11.659986,-12.708629,-13.789816,-14.803962,-15.541267,-15.643736,-14.564163,-11.7152405,-6.758219,0.109515175,8.026569,15.620482,21.480274,24.702003,25.164087,23.46669,20.558613,17.250175,13.9658785,10.80707,7.7144694,4.6338124,1.6511244,-0.9966419
-3.2137718,-3.2067606,-3.376126,-3.6574678,-3.998745,-4.3555684,-4.7003207,-5.0468726,-5.397967,-5.7131143,-6.013348,-6.356813,-6.709701,-6.997061,-7.1719146,-7.2395554,-7.2781987,-7.3523517,-7.4298115,-7.36821,-6.8857646,-5.5654883,-2.989543,1.0379846,6.290083,12.024129,17.123323,20.518076,21.631987,20.546375,17.876713,14.48422,11.106642,8.134251,5.643026,3.4851727,1.4310973,-0.57692975,-2.4150772,-3.9197824,-4.898738,-5.235945,-5.0034733,-4.4175024,-3.7373495,-3.1712475,-2.8169265,-2.6542196,-2.6598113,-2.845187,-3.139059,-3.4474869,-3.771609,-4.1384463,-4.553316,-5.0097065,-5.463465,-5.8479805,-6.1128774,-6.2370715,-6.243001,-6.184117,-6.11153,-6.0850306,-6.158603,-6.3087945,-6.393805,-6.1684046,-5.2725167,-3.2646825,0.1400167,4.8160167,10.144848,15.112884,18.643988,20.044558,19.255558,16.797651,13.469276,9.997743,6.8666744,4.253454,2.076579,0.16164069,-1.5984879,-3.1289463,-4.24783,-4.81727,-4.8192616,-4.4064846,-3.8100026,-3.2237194,-2.7660227,-2.4799242,-2.3695374,-2.3806849,-2.43542,-2.5219834,-2.6990619,-3.0119684,-3.4294765,-3.8993204,-4.3887877,-4.885778,-5.3748307,-5.8019185,-6.1312213,-6.356738,-6.4762735,-6.525756,-6.556146,-6.5941234,-6.6250587,-6.5470243,-6.1072993,-4.8910866,-2.4550946,1.4507306,6.595937,12.165308,17.040699,20.187113,21.01475,19.598757,16.628119,13.048637,9.592883,6.577407,3.9996438,1.7198076,-0.39744043,-2.3611705,-4.0291986,-5.231986,-5.8416767,-5.817716,-5.2920065,-4.5189557,-3.747439,-3.1440094,-2.7900293,-2.6880493,-2.7835891,-3.0148625,-3.292252,-3.5509605,-3.8012881,-4.0539927,-4.298428,-4.511427,-4.676158,-4.7973213,-4.8949723,-4.9944444,-5.094573,-5.214084,-5.4145246,-5.7189503,-6.086451,-6.373334,-6.2969255,-5.4785614,-3.5176194,-0.1521136,4.530819,9.93997,15.049704,18.760475,20.350159,19.721382,17.325611,13.952219,10.428678,7.2988467,4.7137814,2.5547204,0.6156353,-1.249565,-3.014822,-4.4969068,-5.4957514,-5.9014354,-5.748288,-5.2136154,-4.5230503,-3.8790503,-3.4340796,-3.2400253,-3.2508175,-3.3923998,-3.5989616,-3.8163815,-4.0403175,-4.2997394,-4.5928016,-4.9224186,-5.2971525,-5.665531,-5.951367,-6.1137643,-6.174364,-6.1931047,-6.222373,-6.303399,-6.437345,-6.5578184,-6.464548,-5.7443056,-3.8986554,-0.59983337,4.1605387,9.866467,15.400617,19.518768,21.408443,20.953632,18.665335,15.351217,11.812984,8.612189,5.9463367,3.729019,1.7565527,-0.13681713,-1.9581711,-3.5793252,-4.8010125,-5.425961,-5.4094534,-4.892395,-4.143596,-3.4484901,-2.9695888,-2.7571316,-2.8079069,-3.0407698,-3.3378808,-3.6694176,-4.029459,-4.3541784,-4.630648,-4.9139895,-5.256401,-5.669601,-6.099656,-6.4674006,-6.713907,-6.8175244,-6.815226,-6.789489,-6.825232,-6.9238734,-6.929373,-6.5194197,-5.237452,-2.6792889,1.2600601,6.278082,11.676577,16.434376,19.496738,20.306602,19.012424,16.264383,12.931415,9.74166,7.0549355,4.8768473,3.0165684,1.2778186,-0.4543954,-2.15397,-3.616724,-4.573537,-4.865593,-4.558381,-3.9223316,-3.2622619,-2.7525482,-2.4237554,-2.2735534,-2.3078232,-2.4878094,-2.7350872,-2.9919634,-3.2617137,-3.5711708,-3.8996422,-4.2181525,-4.5413485,-4.8661876,-5.1462584,-5.3613667,-5.5222173,-5.6189904,-5.6949277,-5.858081,-6.1425357,-6.4615874,-6.6036377,-6.2172403,-4.885379,-2.2880127,1.6295644,6.53298,11.64503,15.922314,18.465122,18.873323,17.326616,14.465328,11.113594,7.8876677,5.0741816,2.7113423,0.648366,-1.2715573,-3.0616107,-4.5567894,-5.496677,-5.7770634,-5.519422,-4.9210596,-4.1967325,-3.5579407,-3.1396637,-2.9591265,-2.952616,-3.0399787,-3.1730626,-3.36097,-3.6193092,-3.9082532,-4.1876163,-4.467729,-4.7584615,-5.046598,-5.316316,-5.551695,-5.76149,-5.958521,-6.1303983,-6.326883,-6.6387486,-7.0418468,-7.351998,-7.216929,-6.0914354,-3.3659987,1.3129485,7.7115326,14.85145,21.21612,25.364803,26.531425,24.854397,21.183178,16.637693,12.206785,8.419728,5.294357,2.5840678,0.020218233,-2.4814405,-4.77002,-6.565977,-7.585628,-7.722192,-7.149768,-6.2258234,-5.293455,-4.580649,-4.1938143,-4.098253,-4.2052507,-4.456986,-4.7872643,-5.130431,-5.478413,-5.8709397,-6.3229995,-6.7853265,-7.196932,-7.5573225,-7.895339,-8.184885,-8.384359,-8.5564995,-8.799096,-9.079156,-9.270893,-9.147148,-8.244398,-5.9858785,-1.977826,3.7949452,10.7813635,17.781918,23.32051,26.25554,26.222178,23.698774,19.687162,15.261007,11.196959,7.8337984,5.1089625,2.705989,0.3432801,-2.020142,-4.1775537,-5.8203883,-6.7337084,-6.8771906,-6.399415,-5.5697436,-4.6521487,-3.8834946,-3.4450326,-3.378235,-3.6064517,-4.018747,-4.5038404,-4.977066,-5.4081225,-5.800925,-6.167682,-6.537136,-6.9344745,-7.350408,-7.7448444,-8.070479,-8.297271,-8.450806,-8.626246,-8.832627,-8.854121,-8.30707,-6.6894984,-3.5050805,1.4311308,7.7393436,14.443682,20.229723,23.89285,24.804659,23.165686,19.829395,15.841717,12.050331,8.8819,6.3128347,4.054724,1.8219593,-0.4665535,-2.6878295,-4.5932126,-5.888342,-6.4174137,-6.2663245,-5.6698856,-4.9106913,-4.243028,-3.8112743,-3.6341772,-3.6909275,-3.9650981,-4.386594,-4.8588343,-5.318227,-5.7481136,-6.1959686,-6.7252746,-7.320214,-7.8856764,-8.346909,-8.671534,-8.863157,-8.978746,-9.0921335,-9.245363,-9.31103,-8.936403,-7.6745543,-5.0662737,-0.7545233,5.1980143,12.033332,18.451157,23.118856,25.181637,24.535004,21.764835,17.828516,13.717329,10.144767,7.30715,4.9861884,2.8776617,0.81958526
-1.5083419,-0.7168373,-0.3106984,-0.48804444,-1.0400821,-1.4817442,-1.3483108,-0.4812784,0.9126282,2.3007388,2.990417,2.619604,1.437963,0.056644868,-0.94652075,-1.281009,-1.0159628,-0.44934475,0.09469852,0.39698914,0.41940576,0.259416,0.07254792,0.0047357096,0.12360422,0.39606562,0.6561857,0.6809054,0.35558468,-0.22633022,-0.80857396,-1.1502699,-1.137569,-0.79670376,-0.300818,0.09308822,0.21555494,0.09546148,-0.08778497,-0.12352518,0.07673328,0.39798868,0.5972449,0.4588792,-0.030299107,-0.6587324,-1.1362365,-1.2363,-0.89446986,-0.20958693,0.59734076,1.2313812,1.4455428,1.1569098,0.47426254,-0.34826228,-1.0342656,-1.4140913,-1.4436638,-1.2008455,-0.86175495,-0.56189746,-0.34777197,-0.23961604,-0.23137763,-0.28323606,-0.34041086,-0.33293495,-0.20374227,0.0030071493,0.1566511,0.13109446,-0.109693274,-0.42502293,-0.6372389,-0.6883669,-0.63869476,-0.7569943,-1.5690134,-3.5890915,-6.7228813,-9.737777,-10.207767,-5.529629,5.1537614,19.564604,32.420444,37.590595,31.187635,13.919953,-8.675046,-28.642475,-39.500954,-39.33801,-29.59758,-12.746659,7.0295315,24.009747,33.066036,31.487696,20.08127,3.1640573,-12.898886,-22.253286,-21.960346,-13.128519,-0.26194853,10.877691,15.813565,13.1905985,5.081921,-4.2746005,-10.582981,-11.554509,-7.759709,-1.8688245,2.9879713,4.7597938,3.2624235,-0.015288364,-2.889448,-3.6746416,-1.9884603,1.1995094,4.211886,5.577828,4.7214155,2.074944,-1.314722,-4.3135977,-6.0862474,-6.3294516,-5.2406325,-3.2034626,-0.6459762,1.9421879,4.0612984,5.2364435,5.1724,3.9338026,1.9386126,-0.17818035,-1.7900159,-2.4722512,-2.1768537,-1.283283,-0.34333596,0.21522935,0.2761104,0.0598008,-0.04631763,0.33485928,1.2774664,2.3265507,2.7715783,2.1310117,0.47235364,-1.6052835,-3.295194,-3.976155,-3.4983757,-2.199583,-0.7075636,0.3639672,0.70834786,0.42689106,-0.10845924,-0.5318231,-0.6837969,-0.63804984,-0.6173834,-0.807898,-1.2136873,-1.6826982,-1.9571345,-1.7719549,-1.0613099,-0.065460965,0.6613625,0.36490664,-1.6018114,-5.4429235,-10.473881,-14.747144,-15.347439,-9.536808,3.5397656,21.410015,38.329933,47.556038,44.37593,27.933905,2.8175228,-21.605167,-37.731575,-43.845806,-40.73285,-29.262577,-11.077155,10.226239,28.901428,39.204018,37.78056,25.035225,5.3761644,-14.146976,-26.507513,-27.673311,-18.318405,-3.326282,10.541159,17.63665,15.720044,6.6450224,-4.9164143,-13.940105,-17.234354,-14.485745,-7.9739556,-1.1036927,3.3191829,3.9943256,1.1981765,-3.6151228,-8.418765,-11.236412,-10.61098,-5.8405704,2.6808398,13.273751,23.214989,29.195951,28.241768,18.942295,2.6246736,-16.489634,-32.55804,-40.410904,-37.723488,-24.764229,-3.7610066,20.25505,40.28033,50.056213,45.82677,27.794617,2.18186,-21.531801,-36.960728,-42.502132,-39.417625,-29.425694,-14.028895,4.112154,21.93582,37.07716,46.99344,48.88719,41.021896,24.31238,2.806575,-17.672844,-32.0733,-38.36401,-37.248695,-30.708614,-21.541235,-12.487698,-4.9668546,0.8973715,5.4858246,9.142848,11.866434,13.313043,13.1707325,11.477474,8.635884,5.2067156,1.6696162,-1.6324462,-4.4836516,-6.785154,-8.488876,-9.546372,-9.878158,-9.353899,-7.7904353,-5.0663614,-1.3230004,2.9617295,7.0456514,10.011009,10.988244,9.566374,6.009323,1.1500943,-3.83435,-7.6511045,-9.072425,-7.1725016,-1.7131553,6.516086,15.436951,21.806705,22.31959,15.333865,2.1341233,-13.24764,-25.574871,-30.567282,-26.557558,-14.88777,0.7281025,15.434408,24.482418,24.926205,17.059256,4.2216144,-8.524618,-16.408514,-16.809818,-10.196728,0.05213967,9.269303,13.699633,11.969215,5.4278603,-2.684698,-8.890946,-10.976449,-8.751344,-3.8925004,1.090315,4.1512117,4.5418916,2.912424,0.7197263,-0.6636655,-0.62566894,0.553316,2.0167313,2.7721398,2.2026124,0.40307727,-1.9500811,-3.9672253,-4.932044,-4.5739512,-3.0849438,-0.9185777,1.4158417,3.4143925,4.5841775,4.556096,3.2679014,1.0150625,-1.5526047,-3.5623417,-4.3163056,-3.6373992,-1.9607154,-0.12811244,1.0436964,1.1580423,0.39704433,-0.6183938,-1.2212901,-1.0648364,-0.2291757,0.8188945,1.4490702,1.2496046,0.23235108,-1.2058165,-2.549241,-3.5331552,-4.3155766,-5.4159784,-7.4457684,-10.464993,-13.396524,-14.136863,-10.269783,-0.3072836,15.058753,32.433113,46.354694,51.16276,43.31116,23.586626,-2.3449829,-26.036306,-40.727535,-45.389416,-42.272877,-32.984127,-19.692602,-5.603197,6.522684,14.516337,16.707148,12.339241,2.4715955,-9.39544,-18.180676,-19.17225,-10.121649,7.3067937,27.632317,44.098515,51.482315,46.56931,29.228497,4.024754,-21.112444,-38.636337,-45.806995,-44.052498,-34.430843,-18.445707,-0.29445645,14.727135,22.601482,22.148304,14.966912,4.4141684,-5.403024,-10.741984,-9.224558,-0.35187194,14.187767,30.41083,42.67489,45.313736,35.44153,15.098476,-8.781281,-28.183947,-39.337463,-42.82777,-40.6427,-34.27281,-24.607767,-13.290609,-1.9975528,8.68231,18.318262,25.604574,28.276127,24.490444,14.463628,0.98208845,-11.63751,-19.65227,-21.428694,-17.813759,-11.237575,-4.3094087,1.1314461,4.300247,5.2240453,4.3731084,2.3812017,-0.023192773,-2.0631948,-3.1347551,-3.0312757,-1.9971576,-0.58482707,0.62139785,1.2431488,1.2050158,0.7011692,0.025437457,-0.5382437,-0.78232145,-0.68258893,-0.3732068,-0.045194104,0.21596093,0.47374383,0.77270174,1.1061395,1.4477721,1.7223754,1.8242354,1.7049,1.4251814,1.0799048,0.76411813,0.57733965,0.5704168,0.71025956,0.87171566,0.96952325,1.1179434,1.5292146,2.33956,3.5444949,4.9329524
0.55387145,-0.89395434,-1.9539405,-2.7040339,-3.2733195,-3.853384,-4.58202,-5.5017433,-6.560037,-7.6177177,-8.536737,-9.2544155,-9.79972,-10.251132,-10.670369,-11.068498,-11.411876,-11.6721735,-11.839277,-11.887346,-11.804238,-11.649853,-11.520125,-11.481349,-11.554393,-11.668927,-11.589556,-10.8962555,-9.060798,-5.624616,-0.45308685,6.057129,13.0083065,19.291977,23.955896,26.495016,26.960863,25.823198,23.726679,21.23787,18.702694,16.243902,13.805549,11.284772,8.621765,5.871106,3.260649,1.0500646,-0.63265985,-1.8201014,-2.6558888,-3.3070173,-3.9211564,-4.6142483,-5.4381976,-6.3895288,-7.431598,-8.469534,-9.385645,-10.152127,-10.850756,-11.542814,-12.199364,-12.780059,-13.248543,-13.563854,-13.7310295,-13.779759,-13.748365,-13.678955,-13.626393,-13.658121,-13.744751,-13.703907,-13.209346,-11.8124075,-9.003605,-4.452298,1.684245,8.772038,15.852026,21.835861,25.898842,27.755783,27.6524,26.160322,23.910818,21.404924,18.896557,16.407171,13.859257,11.192281,8.416555,5.6722636,3.2181783,1.2690289,-0.14417641,-1.1415393,-1.8863887,-2.5329661,-3.21398,-4.0124497,-4.9176536,-5.8449893,-6.752176,-7.6513414,-8.533003,-9.346206,-10.014739,-10.528659,-10.9624815,-11.374016,-11.75549,-12.048978,-12.212849,-12.254239,-12.204832,-12.123584,-12.088192,-12.102991,-12.003818,-11.4744835,-10.10237,-7.47485,-3.4277747,1.8008533,7.621142,13.211934,17.782843,20.807323,22.100233,21.835823,20.432428,18.38701,16.110888,13.822936,11.585222,9.338057,7.00243,4.655482,2.489511,0.68065786,-0.64726543,-1.4944524,-1.9870592,-2.2923317,-2.5894296,-3.004666,-3.5536618,-4.193549,-4.87496,-5.5575776,-6.234874,-6.920716,-7.6301227,-8.344264,-8.985911,-9.491143,-9.854012,-10.111518,-10.302365,-10.420084,-10.448362,-10.38432,-10.240031,-10.088104,-9.969012,-9.748438,-9.136589,-7.7171283,-5.088716,-1.1302558,3.95345,9.626554,15.008612,19.18258,21.591698,22.179056,21.317234,19.606714,17.590004,15.550223,13.539296,11.510417,9.403226,7.2114244,5.0302553,3.004253,1.2471017,-0.17038038,-1.2193819,-1.9330226,-2.4308827,-2.870756,-3.3887613,-4.056181,-4.814695,-5.58407,-6.367926,-7.1594567,-7.8952265,-8.511135,-9.015175,-9.469513,-9.897094,-10.2655,-10.5234785,-10.673701,-10.802771,-10.971702,-11.166778,-11.36075,-11.554535,-11.713616,-11.633247,-10.950389,-9.24258,-6.163813,-1.6796073,3.851097,9.742496,15.101768,19.150349,21.504862,22.19518,21.535301,19.964285,17.933962,15.787625,13.683036,11.620174,9.52253,7.311788,4.976141,2.6578217,0.5999505,-1.0172732,-2.1248755,-2.7539296,-3.064492,-3.302807,-3.6730304,-4.2650547,-5.058151,-5.9561005,-6.8486605,-7.64806,-8.303492,-8.8082485,-9.149636,-9.331005,-9.445299,-9.570465,-9.685387,-9.74812,-9.768671,-9.825148,-9.977523,-10.204086,-10.453442,-10.621127,-10.468655,-9.633023,-7.713271,-4.431124,0.19953108,5.822051,11.725447,16.957603,20.695314,22.549582,22.614485,21.327469,19.251577,16.893528,14.582731,12.446824,10.439503,8.410155,6.2528296,4.017031,1.8984957,0.12711437,-1.1802511,-2.0608547,-2.6124218,-2.9549208,-3.2692215,-3.7138722,-4.3068147,-4.9964795,-5.7680573,-6.5980396,-7.415959,-8.163728,-8.8250475,-9.39496,-9.869207,-10.244479,-10.513981,-10.690184,-10.791151,-10.825298,-10.831857,-10.874647,-10.980445,-11.117391,-11.135502,-10.705339,-9.42754,-6.9533925,-3.0852208,2.0769887,8.0614195,13.987975,18.821331,21.854984,22.912155,22.32291,20.694082,18.588253,16.381174,14.218195,12.070984,9.87315,7.605138,5.3116374,3.125221,1.234398,-0.25318953,-1.3379638,-2.075939,-2.5888615,-3.0200896,-3.4924836,-4.092895,-4.822536,-5.610274,-6.385627,-7.131576,-7.853924,-8.539211,-9.141153,-9.612854,-9.988036,-10.315381,-10.59213,-10.804119,-10.92857,-10.973554,-10.972679,-10.926072,-10.855241,-10.778353,-10.578897,-9.9405775,-8.376097,-5.4508705,-1.0284938,4.610581,10.746296,16.37348,20.550236,22.780313,23.104767,21.94721,19.922598,17.574936,15.225167,12.983103,10.802525,8.589576,6.311161,4.0511785,1.9869492,0.28590637,-0.9993953,-1.9348712,-2.602122,-3.0863264,-3.5160718,-3.9900424,-4.55486,-5.224852,-5.982036,-6.805292,-7.6317897,-8.37588,-8.998624,-9.499358,-9.911415,-10.255793,-10.53603,-10.763703,-10.908164,-10.934983,-10.871017,-10.792247,-10.774955,-10.804804,-10.755054,-10.368611,-9.2165165,-6.8520646,-3.0638957,2.0240695,7.9308176,13.823562,18.728678,21.909388,23.134396,22.686201,21.162287,19.13887,16.97512,14.839145,12.697869,10.439025,8.044628,5.6120977,3.3379936,1.3983259,-0.12668633,-1.2289596,-1.9628348,-2.4173245,-2.7488694,-3.158897,-3.7675292,-4.5710316,-5.4830046,-6.4112844,-7.2830825,-8.027701,-8.6371565,-9.162666,-9.619212,-10.011679,-10.371854,-10.673437,-10.839817,-10.87151,-10.846916,-10.835226,-10.8623295,-10.915958,-10.966123,-10.953598,-10.708878,-9.886614,-8.061333,-4.928076,-0.4013926,5.273521,11.409705,17.032537,21.207201,23.40304,23.668482,22.457104,20.38249,18.020565,15.728627,13.583836,11.484915,9.293325,6.957144,4.5657835,2.3131306,0.41690946,-0.99263686,-1.9226754,-2.4986932,-2.9029214,-3.2792299,-3.730632,-4.3364725,-5.110624,-5.9840636,-6.842455,-7.610243,-8.263458,-8.79663,-9.24639,-9.67355,-10.089145,-10.433969,-10.654566,-10.765796,-10.8163395,-10.850731,-10.884729,-10.88755,-10.8504505,-10.821832,-10.753682,-10.376356,-9.248531,-6.894972,-3.021327
-5.031869,-5.2462926,-5.5424113,-5.8929515,-6.257871,-6.57701,-6.8228364,-7.0519133,-7.3621235,-7.8107233,-8.328238,-8.6463995,-8.30467,-6.7734227,-3.6945078,0.91743004,6.5865264,12.353288,17.025866,19.660542,19.916199,18.13381,15.122787,11.79567,8.806003,6.3644295,4.34696,2.5066955,0.6654405,-1.2167839,-3.0490913,-4.6136665,-5.6742606,-6.1282845,-6.0807304,-5.7504683,-5.3552613,-5.085006,-5.047542,-5.2461233,-5.6145597,-6.0708356,-6.5272136,-6.916377,-7.237418,-7.513293,-7.7699547,-8.019763,-8.223833,-8.2675085,-7.911926,-6.809564,-4.6095295,-1.1133041,3.5625405,8.861939,13.832993,17.453852,19.039158,18.532942,16.478176,13.690502,10.915543,8.569614,6.6676397,4.9639072,3.2079651,1.3324363,-0.55526227,-2.2664108,-3.6210687,-4.5177336,-4.931779,-4.9325767,-4.7108917,-4.479206,-4.360845,-4.4026794,-4.6114545,-4.9510045,-5.359949,-5.786122,-6.191722,-6.562924,-6.9571857,-7.4584594,-8.052927,-8.649479,-9.132126,-9.306509,-8.819705,-7.199439,-4.112491,0.41212457,5.8430266,11.206531,15.524552,18.093412,18.607206,17.316593,14.877788,12.051069,9.404352,7.134637,5.1319,3.1714272,1.134178,-0.91823924,-2.7918503,-4.2612977,-5.192719,-5.585523,-5.556901,-5.290296,-4.9638357,-4.708918,-4.6169977,-4.7530246,-5.103781,-5.5761056,-6.0671926,-6.493572,-6.847553,-7.1842256,-7.5329256,-7.911567,-8.313099,-8.638803,-8.664951,-8.06332,-6.4812064,-3.6210828,0.5963858,5.845246,11.331276,15.990649,18.910206,19.652607,18.397669,15.820025,12.744992,9.809341,7.275252,5.075936,3.044124,1.082294,-0.8202395,-2.5808818,-4.0280967,-4.9906864,-5.403131,-5.3514066,-5.0584145,-4.7721047,-4.627556,-4.6587596,-4.8716,-5.2420015,-5.696492,-6.1657,-6.61442,-6.9984407,-7.306936,-7.600388,-7.9174037,-8.241259,-8.521602,-8.598442,-8.161875,-6.7681947,-3.9858673,0.29268897,5.6931405,11.395416,16.302698,19.429913,20.308092,19.107904,16.489916,13.307134,10.253215,7.624163,5.3474994,3.237086,1.1990861,-0.7571786,-2.5701034,-4.1247377,-5.2403207,-5.7736807,-5.781398,-5.508892,-5.223272,-5.08962,-5.174953,-5.4604144,-5.841846,-6.230831,-6.6025,-6.9590616,-7.316655,-7.656221,-7.933426,-8.167226,-8.423341,-8.695799,-8.824782,-8.457604,-7.1139526,-4.4071293,-0.23324664,5.1129217,10.878506,15.990156,19.384912,20.468275,19.388254,16.83873,13.692925,10.668737,8.0991745,5.939947,3.9339643,1.862706,-0.26755437,-2.2699487,-3.92841,-5.0897145,-5.696523,-5.7939844,-5.5411625,-5.1885414,-4.9543004,-4.9386134,-5.160145,-5.5676107,-6.0393534,-6.4598684,-6.783019,-7.0240855,-7.2289567,-7.447514,-7.7002892,-7.991854,-8.293951,-8.451364,-8.172851,-7.0754323,-4.761145,-1.0022749,4.023391,9.623237,14.773291,18.472183,20.080515,19.548002,17.391272,14.420944,11.38369,8.709082,6.47146,4.522285,2.6434479,0.6986453,-1.2853092,-3.1267016,-4.562996,-5.4104705,-5.677187,-5.54893,-5.2929792,-5.1598206,-5.303249,-5.721324,-6.2913113,-6.877783,-7.420993,-7.888089,-8.218537,-8.389213,-8.436859,-8.455895,-8.565071,-8.801928,-9.032391,-8.93772,-8.087847,-6.072988,-2.6475387,2.134921,7.7499385,13.195359,17.358683,19.498163,19.51298,17.866724,15.293741,12.48972,9.899825,7.6900344,5.7805204,3.9296565,1.957415,-0.096700236,-2.0385292,-3.6440363,-4.739741,-5.270621,-5.30818,-5.036344,-4.716672,-4.5437984,-4.572985,-4.7763076,-5.117614,-5.560313,-6.020069,-6.43429,-6.8145123,-7.1679797,-7.487099,-7.8015327,-8.140132,-8.454671,-8.579144,-8.208219,-6.9326363,-4.370311,-0.38300684,4.74107,10.257339,15.0888405,18.215496,19.131405,18.020292,15.591575,12.684285,9.925279,7.5616536,5.528417,3.6551464,1.7863984,-0.11410886,-1.9284102,-3.4636183,-4.547064,-5.103726,-5.190023,-4.9980063,-4.753142,-4.602964,-4.6085668,-4.7710214,-5.073497,-5.4781575,-5.923279,-6.3401923,-6.6897564,-7.003006,-7.3278847,-7.6898074,-8.112821,-8.600217,-9.035593,-9.135642,-8.506348,-6.706799,-3.427071,1.2869354,6.9262586,12.561257,17.090319,19.650143,19.956387,18.3539,15.61396,12.55825,9.715082,7.237597,5.0398664,2.9744709,0.9630446,-0.9429643,-2.6126704,-3.8708153,-4.5640492,-4.7207413,-4.5408363,-4.257343,-4.059761,-4.0714316,-4.3202276,-4.729532,-5.2039347,-5.7114725,-6.242747,-6.740072,-7.169516,-7.576976,-8.014545,-8.513168,-9.085394,-9.652403,-9.973904,-9.676146,-8.321395,-5.524023,-1.134398,4.574856,10.789832,16.339445,20.121489,21.532759,20.69272,18.252811,15.039201,11.763432,8.826733,6.2808824,3.9996269,1.8301672,-0.3507637,-2.5015712,-4.3986964,-5.7861843,-6.5172586,-6.6400037,-6.392639,-6.093583,-5.9246745,-5.889515,-5.993592,-6.255622,-6.6301465,-7.0381117,-7.4130416,-7.720472,-7.9722104,-8.21316,-8.490146,-8.836909,-9.207738,-9.40597,-9.055025,-7.6900454,-4.945481,-0.6674355,4.9086123,11.064743,16.692623,20.55613,21.948772,21.039852,18.555214,15.351058,12.078968,9.100151,6.544726,4.292725,2.1013036,-0.13252439,-2.285348,-4.1212716,-5.42255,-6.1178794,-6.32578,-6.2186913,-5.959135,-5.728319,-5.668774,-5.8356857,-6.199613,-6.6681814,-7.1427484,-7.5669465,-7.925933,-8.234302,-8.525083,-8.825658,-9.128729,-9.379726,-9.433229,-8.972017,-7.5483932,-4.7517543,-0.4168962,5.1582756,11.137682,16.364153,19.794912,20.905914,19.86207,17.355192,14.265855,11.348818,8.973801,7.0229363,5.1734834,3.2512276,1.2046486
