-0.804046,0.57714784,-0.55808103,0.25633532,-0.585424,-0.21943216,4.7847905,0.7020224,-0.29361796,7.5961204,3.1283092,0.82865673,4.992927,0.6633002,1.6335768,2.1628861,-1.7956836,-0.19813772,0.17060995,0.26380685,1.3446367,-0.020471413,0.4927061,0.49894083,0.8950357,2.0462797,-0.65770054,0.059425157,2.0375898,-0.23706852,0.10365464,0.9356301,-0.2618213,0.4619451,0.63323253,0.86147577,1.377397,0.7724433,1.2426383,-1.0805404,-1.7588645,0.6725929,0.19399892,0.8194051,1.1415927,1.3799897,1.313643,-0.84480155,0.70290864,1.8402973,0.680255,0.93613446,1.109133,0.79021883,0.79501325,-1.0699894,0.3207513,3.0875304,-0.820307,-0.13298672,1.5457681,0.2831031,1.046588,0.33153594,0.90494853,0.70418835,0.7070973,0.662994,-0.54152554,1.1141261,0.7976397,-0.24511664,-0.021548614,-0.13756754,0.21755087,0.41206485,0.73053503,-0.031316463,0.26365566,0.8097114,0.42472133,0.70718026,0.57745045,1.1925331,1.0645736,0.4424682,0.3638969,0.017952055,0.7906632,0.105139896,0.4427213,1.5766313,1.223799,1.9988711,0.5118584,1.7285817,1.6010219,0.79406136,2.503266,-3.6368525,-2.6081455,0.3880521,-1.2293998,1.9746355,0.88731337,0.71019423,1.4662995,0.091897115,0.66025937,0.7226227,0.72157043,0.56554526,0.7191936,0.9607695,0.5994688,0.7823682,0.7464774,0.60274774,1.1343081,1.1303489,0.16281877,0.39906344,0.9661838,0.4763756,0.88524014,0.70578414,0.35463738,0.83286804,0.343584,1.0224862,0.95040905,0.20933104,0.9116213,0.43013254,1.2204325,1.0736401,-0.10660389,0.73825914,-0.012116593,1.1178203,0.9832427,0.39306265,1.1785951,-0.41899577,2.0093524,-1.2393363,-0.35332218,5.8130074,-0.4414609,-2.0057967,-2.151778,-2.3532264,0.056412414,0.5880943,2.5822878,0.43633145,-0.14159499,0.5028727,-0.19171923,0.46888465,0.4043042,0.25401863,0.5391728,0.86748886,0.81257826,1.5762732,1.3009851,1.7526019,1.8120811,1.4530565,2.298086,-0.804758,-0.3391412,1.7825266,0.5704049,1.1841489,0.68951577,0.7815135,1.0128672,0.94867957,1.5831351,0.15445572,0.48617795,1.7660921,1.6655505,0.31170332,-0.509648,0.4931054,-0.022704955,0.1294705,1.1244873,1.1298462,1.0577564,1.4559666,0.871365,0.38750193,1.0148273,1.198569,2.9950435,0.038416486,-1.1987,2.883228,1.6244577,1.3927095,0.41422465,-1.4440411,-0.7756367,-0.34945437,0.19190477,0.008192338,0.69418097,-0.15282613,-0.27804127,0.5255583,-0.7316922,-0.11982794,0.764198,0.3317016,-0.3265054,0.2678604,0.7375789,0.54916865,-0.0030510789,-0.0727286,0.40030432,-1.1096756,-1.0713686,0.03230467,0.059248827,-0.14785185,-0.8758308,0.7487493,0.36129573,-1.4867009,-0.40350378,-1.9787053,0.537903,0.5128346,-4.9433546,-0.80085355,0.9238832,-0.32715505,0.92546934,-0.038882457,0.8876135,0.9211927,0.33858117,0.66030097,0.07634309,0.49380866,0.8147544,0.8553381,1.030799,0.8761309,1.0264872,0.91352385,0.7709132,0.96179056,0.92465234,1.0189116,0.9805903,0.75140375,0.79715765,0.6396004,0.70581955,0.6500268,0.34386474,0.6281298,0.83856213,0.764548,0.25579324,0.8514563,1.3891748,0.3732251,1.150037,1.2510982,1.528622,1.5919477,-0.6721736,0.90224314,1.5957612,0.6853677,1.8609674,1.4393129,1.0628761,1.2424014,1.2992537,1.2893866,1.1046631,1.4547502,1.0892558,0.6815012,1.2340416,0.82485616,0.9148574,2.086913,-0.8726605,-3.8049047,-1.1089933,0.91855806,0.35097882,0.78823,0.8438282,0.5938548,0.57447636,0.11970608,-0.19352074,-1.159506,-0.101077914,0.23619926,-0.8368879,0.018967252,0.010288919,-0.15016046,-0.17281823,0.05513408,0.13754259,-0.038183913,0.08856443,0.45849025,0.9539174,-0.033066444,-0.050646283,0.26253197,0.008213296,0.46587116,-0.01908674,0.5896129,1.1180159,0.29113948,0.6900242,0.7613385,0.6228493,0.8060011,0.52331316,0.855333,0.22633792,0.26115006,1.732139,1.1260633,0.58886224,0.5254111,0.78477687,1.043541,0.67728347,1.3784876,0.9367694,0.10679041,0.79157007,1.2183217,0.5548324,1.7455947,1.8309724,-0.79545635,0.5112921,1.2681733,0.85465014,1.8920428,0.9341494,0.41926336,0.68723226,0.44169223,0.9210216,1.3166747,0.83457476,0.34077913,0.470806,0.8439696,1.0441414,0.68873084,0.22110015,0.363388,0.5820121,0.5569992,0.7879322,1.1313207,0.78309166,0.5520876,0.48929563,0.2618833,0.64893883,0.57608515,0.14505485,0.4099787,0.30604428,0.31909654,1.517174,1.1102015,-0.834478,-0.7306338,0.43069974,0.66677564,0.19129623,0.9051019,2.1496139,1.8939196,0.049725898,-1.1085955,-0.21065715,-0.9957205,0.9139616,1.2286696,-2.252935,-1.3545088,-1.1290083,-0.23414183,0.71578944,0.5836645,0.7644331,0.055546883,0.09755552,0.163586,0.29402083,0.044889472,0.4429723,-0.46782216,0.91084766,0.6585444,-3.856162,0.009661267,1.587576,-0.25608602,1.2869247,0.5704815,1.4300017,1.8705477,1.0750809,1.28883,1.1162286,1.3772709,1.1973969,1.1375505,1.6048976,1.3934232,1.1713138,1.2963457,1.2657305,1.4662547,1.6935073,1.5251142,1.3697175,1.2593213,1.4521506,1.4218192,1.3656898,1.241955,1.3035231,2.1531744,1.5585026,0.93486816,1.478479,1.4316834,1.4001824,1.3099136,1.1406531,1.4089568,1.609894,1.2857317,1.0708264,1.1229024,1.2775075,1.5242172,0.8236051,0.8111506,0.9606266,0.7973631,1.1245748,1.1170648,1.7087992,0.46573183,1.6261045,1.4398638,-3.4466958,-0.6175712,1.2352029,-0.3648671,0.54278654,-0.25394097,0.5356517,0.53756565,0.1590103,0.9718799,0.057770204,0.17261425,0.3458962,0.12741056,0.44673708,-0.16170597,0.61097723,2.2329445,1.2832257,0.2944831,0.5198274,1.3078469,1.596327,-0.08438911,-0.698675,1.4703372,2.8641145,0.721675
2.3278406,1.8334982,0.80872715,0.3993095,0.7254849,2.1709974,3.2572167,2.7689853,2.5089753,1.5252874,0.5817265,0.62127805,0.81664276,1.6316626,0.58184147,0.7571844,1.8641874,1.0527018,1.6519691,1.210587,1.0751323,1.6468933,0.8172007,1.2212515,0.9279672,1.4473801,1.9469289,1.2170193,1.6069236,0.9056501,0.88711,1.0160697,0.78620595,1.348267,1.3676922,1.1743475,0.7672865,1.452935,1.1526518,0.45201808,0.3666739,0.26157844,0.55600756,0.5129935,1.5665925,-1.3045658,0.47220477,1.6417909,-2.3496113,6.5689816,4.5048175,-5.7998395,-0.91237307,2.3443377,0.43572652,-0.47004628,0.7797415,0.4961541,-1.0611124,0.10387604,-1.2669175,-1.6747621,0.581285,0.24319862,-0.42740893,-0.23513739,-0.10066189,0.60835767,1.1382774,1.0863713,1.7620276,1.8344579,0.99454594,1.2424,1.2392787,1.8739021,0.91501755,-1.1121428,0.84595144,1.8490055,1.3536621,0.9934677,0.53841317,1.4222516,1.0855508,1.1356539,1.7951986,1.198578,1.1142542,0.7627053,1.1214392,1.2240179,0.6103013,1.4881687,0.6553878,1.0756925,3.0819123,2.467367,3.6145976,2.5671558,-1.1338323,0.10064949,1.1593213,0.09033665,0.28770125,0.48169392,0.9140248,0.43747318,-0.40605706,0.060792007,0.3528579,-0.13818058,-0.68178684,-0.85534173,0.5025502,1.0483985,0.42601186,0.6266692,0.25895706,1.6210871,1.693269,0.16896479,0.8960063,0.22565977,-0.0049139108,1.5213137,1.4847937,1.1961564,1.3612438,1.3986285,1.8868,1.7576782,1.4553065,1.1123132,1.868192,2.1929653,-0.42536825,0.16606398,1.9446483,0.7573527,0.92259216,1.4526113,-0.07860156,-0.45435637,0.97835284,1.8568757,0.2831835,0.41140532,2.307664,-2.178035,1.2218915,5.8727126,-3.0558214,-1.5328431,2.5205412,-0.9155996,0.05037496,0.054647643,-0.10450954,0.22513479,-0.104814745,0.13671038,0.19324669,0.069461405,-0.46086574,-0.056227785,0.2707145,0.34718215,0.18652241,0.15907508,0.6840151,0.6388502,0.7567019,0.5194065,0.629963,1.0341437,0.59044695,0.89545214,1.0684328,0.96368575,1.245143,0.7266734,0.25802106,0.048533943,0.48881355,0.8564249,1.0770618,2.3099883,2.283403,1.7145412,1.6738193,1.9922439,1.6385944,1.9736289,2.0418599,0.8360527,3.0151956,1.390611,3.592638,6.6777635,-0.6156475,-0.17962092,1.2400357,0.79586256,2.4244661,0.065342605,0.48127946,0.5293836,-0.07834277,0.7946692,0.53759915,0.55674875,0.5982725,0.5169647,0.43358415,0.7146249,1.4243902,1.0894954,1.1951936,1.1021498,-1.4636422,-1.2694155,0.8701502,0.41216165,0.0850752,1.2934312,0.9572251,0.84927,2.0679207,-0.50989187,-0.5790966,1.1961191,0.19788556,1.1917894,0.53497785,-1.3111066,-0.22892919,0.8597188,-0.43380976,-0.4545278,0.7628323,0.022841297,-0.46446759,0.77533066,0.51770145,-0.25000277,0.88733673,-2.6519656,-0.9506656,2.6056364,-2.8340867,0.13089912,-0.97894627,-2.891862,5.17042,1.9826063,-0.19731887,1.0879725,0.35177946,1.758212,1.037341,1.3241456,1.0065135,0.9663704,1.2355578,1.0924959,1.4843322,0.74969137,1.1788151,0.8933925,0.6242497,1.0967381,0.5709355,0.87081367,0.790314,0.6963669,1.1393746,0.87329465,0.572535,1.0388839,1.3423986,1.094797,1.4636762,1.1438173,1.6752535,1.9436771,0.72235477,1.4350669,1.4590021,1.2702682,1.0107613,0.6549473,1.1261244,0.8289672,1.7783227,0.4776653,2.7951221,2.9324918,-3.59921,1.3670402,3.4600697,0.41767636,2.1578767,1.1272565,1.4018565,1.3952326,1.3028866,2.046895,1.1471663,0.96428174,1.0995451,1.6046565,1.6848102,1.2353938,1.6985526,1.9992944,1.1528378,0.98266715,1.0634967,0.48249876,0.7132279,0.7717247,0.7880673,1.1310749,1.0697734,1.0753992,0.9713822,0.9984404,1.179321,1.1387417,1.1616805,1.0574992,1.3991791,1.2081808,0.62183446,0.83941627,0.23104525,0.08036369,0.5986656,1.5893779,1.0631968,-0.85891163,0.50534934,0.6776515,0.809491,0.16921374,-2.2614064,2.3950021,3.9969838,-1.9681541,-1.0973153,6.215385,5.083476,-0.08302699,1.0631144,1.2761598,0.3524664,0.814537,0.9515185,0.84503174,1.0278014,0.8305075,0.8664032,0.6929557,0.07006385,0.73511344,0.32880345,1.3301035,1.9676628,1.0963342,1.5659534,-0.40978405,-0.05948406,1.898367,1.4981005,1.1465279,1.2728885,1.7287638,1.005992,1.22462,1.3277297,0.793652,0.87500995,0.2885092,1.0358971,1.0158436,0.4159879,1.2795653,0.8238805,1.29777,0.92234695,0.5860206,1.51738,0.31797916,2.3338175,-0.41121358,-1.1199139,3.7945714,-2.1696024,-1.6218202,2.6731174,0.07763291,1.6884496,1.8525891,0.46615323,0.38214034,0.913397,1.1654687,1.600295,5.915753,3.7284222,-1.3322759,1.6289601,0.53763664,-2.7729611,0.35416406,0.37174767,-0.8557214,0.87254804,1.4660507,1.0258975,0.40302533,0.7510488,0.5108022,-0.60732555,0.31275573,0.74149233,0.24883215,0.42285115,0.5213534,0.8323409,0.6414168,0.66657835,0.48607504,0.13828473,0.80128956,0.55805165,0.32728556,0.5960916,0.3295469,1.3066726,1.2591885,0.8404664,1.8422233,0.67419124,1.6926913,1.7524662,0.8028026,2.8164914,0.7153683,2.5968504,1.4885961,-4.535008,0.5499594,2.6124072,0.40496033,1.4227875,0.9023022,1.3098687,1.5441204,1.4633405,1.1671532,0.93226194,1.3126687,1.3358057,1.421615,1.0602871,1.2247778,1.3934823,1.2934575,1.4741137,1.2424128,1.1192116,1.2691474,1.2632649,1.3815598,1.4471829,1.140142,1.3234775,1.6212544,1.4667916,1.2225401,1.6582212,2.3142798,1.8896377,1.085788,0.9921603,1.5204468,1.4361167,1.5525645,1.2689741,1.2924312,2.0450788,1.1613984,2.3737195,1.1259941,1.9097744,5.764748,0.91295177,2.6137223
1.2316161,1.9144568,1.2688484,-1.1501259,0.639112,0.22349207,1.0139691,1.8357936,-0.79818505,-0.05874167,0.12692505,-0.45544147,0.036094863,0.22915393,-0.0051435293,-0.21987197,0.035365038,-0.47093272,-0.07165648,0.27938953,-0.34123278,-0.1542911,0.024087477,0.3282256,0.55507684,0.40970415,0.4452672,0.33896336,0.24350998,0.42570427,0.8019569,0.7720902,0.6492461,0.54996634,0.65931755,1.1632342,0.85374606,0.6578994,0.050691735,-0.06628802,0.12899223,-1.7735608,0.7554084,0.94011784,-1.5641464,4.0727897,3.2260754,-0.58007747,0.87524533,0.98040336,1.7637073,1.395155,1.535913,1.7971666,1.0083872,1.6407361,1.3842782,0.91925156,1.1232697,1.4298836,1.7633514,1.6549481,1.499319,1.0796322,2.0378003,0.9293511,-1.3366863,0.6525397,0.64456403,0.19851123,0.6994331,-0.8623163,-0.065558106,0.45843133,0.1492424,1.2952689,0.514915,-0.201116,2.6052396,0.9259744,-2.242374,0.11307309,0.36989924,0.09915988,1.1844771,1.7978513,-0.48972845,-1.8093648,0.41576755,0.78173524,1.1433125,2.0441372,1.7189206,-0.6554158,-1.3046321,-0.61849505,-0.4283256,1.6529497,0.6957382,-0.07144484,1.4374775,0.082352,-0.345302,-0.23442626,-0.8575518,-1.1118195,-0.18118508,0.96439743,-0.38116246,-1.18185,-0.99193186,-1.4046806,-1.8415343,-2.038014,-1.2697564,0.40891886,0.8642819,0.5516488,0.8133161,0.3081328,0.29337692,0.44837755,-0.13885954,0.41345823,0.8522078,0.8609782,1.0151564,1.0254833,1.208851,1.3034945,1.1745906,1.3087422,1.4827231,0.97037727,1.8813096,1.3697,1.1108443,1.8931497,0.46136966,1.816242,0.63908947,3.7232444,4.9765754,-2.590419,1.3106233,1.9138182,0.57428503,3.0705595,0.027154244,1.5678957,0.21502289,2.7910354,1.2437041,-7.9560733,0.79340255,1.0140676,-3.4209647,3.7044127,0.64813155,-0.0678188,1.484319,0.19334881,1.3927082,-0.4479957,0.68104666,1.788196,0.9799181,0.9362829,0.52371275,1.2752327,0.5258596,0.790736,1.4371475,0.273869,0.5667443,0.62465864,1.0416609,1.3612648,0.44279212,1.2540598,1.2303708,0.41652337,1.0485985,1.2115752,0.9361317,1.0490155,1.0922356,0.52872014,0.8186457,1.1283097,0.9673407,1.1854119,0.98477083,1.6245834,1.7747692,2.189602,2.0441868,-0.50371104,-0.9685517,-0.2319794,0.4678215,-0.26838785,0.48298296,1.7016772,-0.7810578,2.096268,2.413489,0.40359256,2.7968824,1.3301795,1.1177346,1.6178286,1.2077858,1.4079782,0.92000103,1.3517619,1.0296165,1.329795,1.4140575,0.9839878,1.4052887,1.1311587,0.85590583,1.523621,2.1940994,0.48901108,0.979934,3.0020692,0.33371994,-0.43661892,1.4481957,2.1075044,2.0333846,0.47768292,0.008586769,0.20517704,0.57372767,0.93062603,0.5199048,1.4954507,1.0389627,0.56604064,-2.2756574,-3.8649082,4.2669578,4.362262,-0.9944106,1.3166265,1.177656,0.6696178,1.3247614,0.7883014,1.1516535,0.73025703,0.6302371,0.86267877,0.690198,1.0659275,0.87910444,0.8654989,0.8693798,0.3957244,1.800289,0.2949878,-2.5180986,-0.6047339,-0.25159153,0.01652599,0.9718499,-0.43329018,-0.16305819,0.32503638,2.2612967,1.969545,0.51039404,1.2355602,-0.6886909,0.5392963,0.23716664,-0.19528416,1.969853,-0.03922732,0.49373928,0.38582343,-1.1777989,-0.1002824,-0.82249945,0.6054222,1.9321932,0.78026116,0.84094334,-0.20597607,0.34297308,0.67383826,-0.70561665,0.10404092,0.16228703,-0.2259473,0.25481674,0.18878399,-0.035159957,-0.23705521,-0.15692347,-0.26407915,-0.3974552,0.28395796,-0.21262328,-0.027070265,0.6336112,-0.50584465,0.8349889,1.7671018,0.84913886,1.3724866,1.534923,1.0781622,1.309298,1.7315135,1.5233186,1.4374503,1.2453413,1.4087651,1.7278411,1.1639788,1.3700941,1.5832167,1.0422555,1.155476,1.2405949,0.61183345,1.0889438,2.0309956,1.4389323,0.88893354,1.5188979,1.6960241,1.107491,1.6991671,1.9626281,1.6237926,1.7854754,2.1278477,2.6993465,2.0800807,0.73273605,0.4288254,1.5569773,0.57566476,0.6408781,0.777923,-0.46935174,4.7912335,2.6595175,-2.1265864,0.28910267,-0.99720365,1.0133201,1.0828252,-1.5467335,1.9897898,0.8606751,-3.0087073,-0.43465257,1.4920301,0.1291882,-0.23959729,-0.16260733,-0.07181893,-0.33527532,-0.5855562,-0.030121116,0.3064005,0.692159,1.1683161,0.1821976,-0.35726368,-0.10129935,-0.6547617,-0.2261367,0.3573656,0.09843143,-0.28192335,-0.5122576,0.13094123,0.22914948,0.010426716,0.6580796,0.17173469,-0.13587044,1.0733576,0.74092984,0.46866095,1.229692,0.7032449,0.6584105,0.5606844,0.034930293,0.31606463,0.24588402,0.40014938,0.3100068,0.25209183,0.52361387,0.25963876,0.4464525,0.33761093,0.36982137,0.49480283,0.26861188,0.30059394,-0.17965816,0.18259923,0.48921052,-0.10414157,0.33028468,0.77198404,0.6791848,0.8892906,1.1627003,0.78523004,0.62348425,0.70767635,0.97786933,0.67872536,0.7482432,2.199294,0.1966587,-0.8733713,0.97837317,0.22441038,0.22582641,1.7614379,1.9065783,0.4446954,0.2037153,0.08762581,-0.30270788,1.1663086,0.751873,0.94736534,1.4115813,0.84607476,1.4668614,0.7615664,1.7060167,1.9936011,1.083229,1.298535,1.3178405,2.8997257,1.1731046,1.3299382,2.412703,0.35173857,2.135091,0.76548463,1.8216537,4.423809,3.3127186,0.9123392,-1.5871131,0.42770872,-3.4372463,-0.008828568,0.8783932,-5.336903,2.27908,0.47020033,-0.34982094,1.2900913,-4.5988517,0.5179509,0.7266261,-1.2919475,2.0042326,0.5983189,1.207192,1.1467991,0.3700084,1.538279,0.32544684,0.8133496,1.2746315,0.6289717,1.386636,1.0156679,1.3944418,1.0804082,0.9462378,1.6679399,1.0747443,1.385545,0.40435496,0.16336486,1.2275045,0.724381,0.6849467,0.815469,0.64517313,0.5112793
2.4506345,0.95381844,1.4906402,1.2845279,1.5392883,1.0521652,0.7543776,1.7523763,-1.6939439,-0.53410876,1.5020074,0.40913737,1.278356,1.3308128,1.3536458,1.1529423,1.1898667,1.2722037,1.0766709,1.4980884,1.3110714,1.0198882,0.8418975,1.2778057,1.4923534,1.1445476,0.89875597,0.7704044,1.5251461,1.4355562,0.93941283,1.4538468,1.0354458,0.950286,1.40982,0.72824067,0.9227708,1.239521,1.2103012,1.3584504,0.9365259,1.4825584,1.7242353,1.3225245,1.0822034,1.7290244,2.5030937,0.5800261,0.7995517,1.5988274,1.0281856,1.8035789,1.6886747,1.5406996,0.55607545,3.060448,3.3388004,-1.0542516,0.96778935,1.3765024,1.840771,2.8151996,1.2331271,2.074617,0.959039,1.5171539,1.7696468,0.9011997,1.8630774,0.9134807,1.2776377,1.4516046,0.8672441,1.174059,0.97063667,1.6712667,1.5606222,0.6354721,0.3434842,0.12730041,0.6476736,0.4646007,0.6305938,1.1506652,0.7510029,1.7719646,1.2442553,1.9003372,2.016492,-1.6020584,0.54609144,1.3554975,0.8260713,1.5322877,-0.11651296,0.9962124,0.53049314,3.3697355,3.006576,-2.5218456,0.50732124,1.6108814,0.81425714,1.7392284,0.7557558,1.0457664,1.209985,1.3411778,1.673224,1.3220204,1.3552732,1.4038663,1.1521224,1.2818761,1.1774585,1.2100118,1.3624413,0.85950506,1.2865769,1.6042306,1.1750708,1.4218779,1.0550263,1.1088321,1.6585062,1.1885215,1.6888458,1.3352364,0.73061854,1.9744445,1.7906003,1.6387283,1.6014885,1.3501912,2.6482909,2.608963,1.7976247,1.000818,0.551302,2.799153,2.4000719,0.54221725,3.7346792,3.02909,0.3696055,1.9984152,1.8791593,1.1596648,0.5078028,0.31757852,0.47198027,1.0377192,1.5514549,0.814068,0.55535114,0.9261099,0.82330865,0.32431617,1.0759809,0.9460653,1.2280653,1.3272732,1.7301514,1.8583416,-1.7939095,-0.009452976,1.6865836,0.07996019,1.4975166,0.9691752,0.9987413,1.675418,1.1538689,1.4356602,1.0227665,1.1283,1.7426935,1.2114666,1.0095477,1.1203672,1.1835632,1.2956104,0.9649541,1.1487637,1.0586596,1.0934112,1.3248706,0.9657398,1.3394984,1.8045433,1.9534346,1.4645035,2.6037986,4.1875696,1.1419278,-0.93261045,0.56227756,0.93684816,1.6098177,2.604388,0.39978334,2.1982,5.1149116,4.0554867,4.342678,-0.6826917,-0.68816465,2.6833637,-0.15025614,3.9364269,2.4387865,-1.6357545,4.732113,2.5381718,-0.15503564,1.8917828,0.15961224,-0.16280472,0.35453263,1.2300161,1.1464325,0.43195623,0.70551383,1.2027243,1.3894083,1.1631305,1.0258877,0.994354,1.1760544,0.8551204,-0.022898067,0.56891024,1.2371563,0.29154027,1.6732262,1.6937926,0.5397381,1.5546701,0.97682595,2.5077305,0.9602645,-1.7812713,1.3876122,1.6136602,1.3116701,1.6297096,0.88599074,1.1186569,0.76851684,1.2658032,1.1895884,1.0911605,1.2649202,0.8350448,1.3817819,1.1522653,0.8817896,1.138299,1.0329665,1.089009,1.4953167,1.4190074,0.48310196,1.639215,1.94383,0.8277312,1.7352977,1.3170509,0.74014616,1.2033954,1.0268036,0.7726409,1.4878016,2.4628499,1.2262489,0.4477777,0.9450251,0.6537492,0.9107474,1.259133,1.0687885,1.3962947,2.5461566,2.7948034,1.6415592,1.1469169,0.7624674,1.5540553,1.4994799,0.53271526,1.2193913,0.83036417,0.59629714,1.3208222,2.6116707,0.9889622,-0.3771326,0.9944336,0.95563304,2.386192,1.8335187,0.7487817,1.0765278,0.9179722,1.7168484,0.70092916,0.70692015,1.348159,0.969385,1.3473822,1.1326743,1.3212117,1.392072,0.96481663,1.5343384,1.451448,0.8253656,1.2763165,1.4732918,1.5490373,1.7391049,1.2595149,1.0335628,0.9998328,1.1606381,1.6304072,1.2423893,0.8344878,1.3702017,1.6043007,0.87014955,0.9012212,1.520934,0.76328486,0.7706789,1.7358077,1.5910207,1.2844161,1.1910709,1.3356678,1.3406692,1.1373789,1.0281922,1.6456583,1.3018574,-0.15463026,0.90765655,1.4638938,0.64735174,0.7221158,1.029273,2.3235288,2.0343246,0.67649406,2.1646016,0.48903814,-2.2574425,0.64661735,1.781748,1.3745008,1.6843948,1.7001401,2.2202637,1.5161844,1.2258992,0.7065634,0.11465133,1.5219516,2.5679083,1.9845356,1.0492135,0.8402334,1.3285627,1.3555243,1.2693655,1.635217,0.9427876,0.58765954,0.6676944,0.72779316,1.3766017,0.807222,0.4341211,0.1789975,0.32373604,0.7647271,0.66599125,0.9822851,0.6879733,1.4232386,0.9760224,1.1734099,2.615192,1.4994277,2.534944,1.9026314,1.4205037,1.9903978,1.1063913,2.581456,2.1319525,4.0521293,3.9450202,0.33693635,1.3157946,1.2138873,1.0558736,1.3259335,0.725627,1.0982744,1.2639936,1.3356545,1.1392721,1.2443413,1.1258237,0.6517364,0.9928901,1.3944108,1.1074529,1.0082637,1.2502387,0.98884565,1.3134974,1.3416655,1.1119982,1.5682491,1.3588486,1.6053134,1.4141388,0.88550144,1.7982825,1.8192683,1.3979151,1.3704144,1.1370269,1.079551,1.2813396,1.5843506,1.3579493,1.5643421,0.9419677,0.88600564,1.6104434,0.47913474,1.2458483,0.8084474,-0.5754555,1.2459671,1.698853,1.4247544,1.2489834,0.8234506,1.2584196,1.114914,0.8229882,1.040816,1.474233,1.3839602,1.0948238,1.1987766,1.3447299,1.4524603,0.9814077,1.1404384,1.4322344,1.5592958,1.6055706,1.6301295,1.8773777,0.57942986,2.3659308,1.9086617,-0.99137163,1.5722982,1.382905,0.98272026,1.66566,0.6797107,1.4788666,1.2391346,0.861159,1.4700279,1.707574,1.5453643,0.8421615,1.0416744,1.647847,1.4594917,1.4408591,1.3218651,1.1295804,1.1329595,0.82625926,1.660703,0.7064667,0.81816435,2.701867,-1.3089372,-0.36403725,4.231004
1.1687814,0.019864153,0.92155534,0.3038917,0.43715414,0.5632668,0.5720133,0.68355584,0.112717114,0.78121305,2.081918,1.2226027,0.36761752,0.32097098,0.12508297,0.5866695,0.6007815,0.4838587,0.887721,0.5198372,0.17145562,0.6018936,0.9483082,0.9286013,0.5121834,0.5574669,0.42537054,1.3142459,2.0781925,0.40764633,0.2493847,0.7680096,0.670068,0.59476155,-0.24866216,-0.050180852,0.23659955,0.16605125,0.55970484,0.5821299,0.64969385,0.76479644,1.0702441,1.0163608,0.98938626,0.008287493,0.5058125,3.1949718,-1.0068455,-1.0044148,4.478432,2.5803041,1.449608,1.10046,1.5244495,0.892489,0.84733254,0.9775707,-0.27985534,3.0760884,-0.014354839,-0.34021643,1.2758096,0.69585514,6.2001762,2.2345202,1.854755,1.1751347,-1.4484179,3.0533807,0.13545527,1.5283796,0.028113773,-2.0670872,1.9906394,0.34648067,1.4475008,1.4372594,0.069979794,1.2971855,0.63593745,1.2317697,1.2828338,0.85398984,1.1418873,1.2544607,1.830014,1.0196542,1.7810639,2.3927517,0.7958432,1.4095523,1.0947489,1.0551472,1.2115144,0.29522046,3.481015,2.106419,-0.7567533,1.8271515,1.2666707,0.9454776,1.4831432,0.83276033,1.1090741,1.1159414,1.1898291,1.2424014,1.5630997,1.646774,1.1388,1.371195,0.8914243,0.2746599,2.1019502,2.9726536,1.2264789,0.17119278,0.8105868,0.6865343,0.52444,1.8111681,1.1433806,1.6020131,1.473478,-1.3363284,-0.036131967,1.4152827,0.9704139,1.2111698,0.99280894,1.340977,1.8288096,1.0524718,0.78893703,1.5560579,1.6127131,1.669467,0.61348796,0.5429218,1.540397,0.34329984,1.3762635,0.99268025,0.52228224,1.825845,0.7895368,5.029592,4.3502736,-0.76967686,-0.21089089,-0.6128382,1.7318572,-0.6115662,-3.8379488,0.38730004,0.43197513,1.0361878,2.0951524,0.6130241,0.80670863,1.2877014,1.8893834,1.5830982,1.4145515,1.3871433,1.0250757,0.37580806,1.6042618,1.0536793,-2.1150742,0.2101732,1.047402,0.30095384,1.0155056,-0.029660806,1.1634673,1.1516521,0.2898952,0.8631244,-0.18832944,0.42682347,0.62386066,0.48845035,1.6945778,0.9300696,2.0621583,2.0166671,1.2466563,2.4299693,0.5477161,-0.041268725,0.40973103,0.31588066,0.9093267,0.9826759,-0.71281487,-0.22833371,3.0707543,-0.8946891,-1.6754313,1.8795062,0.27759564,0.5922897,0.93780434,0.8424652,1.0698452,0.4758021,0.9921956,0.95213175,0.92044073,0.9474547,0.7617046,1.1248698,1.0923533,0.5957899,0.87872005,1.0062171,0.2977137,1.2484164,-0.27040535,-1.4999338,1.7042402,1.6856678,0.99263585,1.4052068,1.0788367,1.3860502,1.1868588,1.1486057,1.029645,1.2382988,1.3545802,1.1940088,1.3205163,0.9572464,1.1883179,0.6203891,1.2559639,2.1181629,1.170527,1.9179387,1.413212,1.354959,1.3236731,1.0805163,2.5151837,1.0596216,1.9560632,1.8429111,2.3687797,4.218481,1.1057663,2.8062124,2.4081967,0.8935323,1.7927024,0.2611682,1.4077868,0.434059,-0.2863208,0.9928336,1.4186815,2.3168163,0.59546524,-0.06303514,0.3550609,-0.14026976,0.33167142,0.5442513,0.96521854,0.8110207,0.123906516,0.48851532,1.2235347,1.0525022,0.14005055,0.67390096,1.2385803,0.3613081,0.91241825,1.2335404,0.8136288,1.2206857,0.91551137,0.9801394,1.056012,0.5426956,1.0467427,1.0790821,0.65562326,1.3013664,0.91382027,1.1647093,1.1753519,-2.010083,-1.853676,0.60000247,0.48089793,-1.1927735,2.3998206,5.288602,-0.47344455,0.3179097,1.379179,0.2543989,1.9486039,0.6318459,1.0112778,0.95504445,0.92729896,1.5454515,0.6560636,1.0505328,0.86256,0.88481426,1.2429645,1.1524589,0.7460726,0.88360983,1.3466439,1.0390469,1.9960514,0.92100966,1.2728297,1.2057493,-0.7114945,2.7901554,0.2222999,-2.8453326,1.4203311,1.9711717,-0.045903035,-0.94852245,-0.07394234,0.48981464,0.26990315,0.31503993,0.44714296,0.7416268,0.5739258,0.8489781,0.867428,0.61237156,1.1844909,1.3572819,0.9886312,0.14994149,0.32217604,0.481869,0.0024491018,1.8491751,1.3727717,0.18719953,0.8808536,0.91652286,0.9176082,0.839475,2.1193008,1.5034126,0.4520964,1.0803227,0.48966318,0.7627348,0.7759257,0.4887592,0.8519367,0.5305056,0.7541734,0.6340511,-0.029804079,1.5504005,1.2671374,-1.7315912,-0.14864606,1.1480243,0.6602006,1.2982842,0.7396388,1.0449665,1.3076788,1.212665,1.2360055,1.320243,1.6486274,1.2232066,0.93444246,0.7168938,0.63639456,1.0028564,0.67861205,0.72051024,1.6229174,1.2738853,0.7636592,0.84163886,1.0442941,1.0213042,0.5178858,1.066773,1.395028,1.19674,1.4887567,1.4087499,1.410129,1.0851043,0.6442758,1.318907,0.54054487,0.8729628,1.3650718,-0.14324701,2.2008805,2.34755,2.2751834,2.597717,0.8598111,4.427799,1.2667603,-1.2869717,2.6456454,1.2716024,1.532086,1.6499845,1.4226652,1.8729267,1.1715269,1.4467609,1.1566561,1.4725572,1.806283,1.5854172,0.69659674,0.75415295,2.0465233,1.7301186,1.6438222,1.3748685,1.1043936,1.9382253,1.3660961,1.4286584,1.7956276,0.9469898,1.2661912,1.0893234,0.6646741,-0.33456236,1.442656,1.923822,-2.0547178,4.3652015,5.2836914,-2.7630162,-0.077931635,1.4780942,0.7837449,1.5558298,1.0167671,1.2481151,0.99556965,1.2983283,0.9815506,0.7947799,1.0893288,0.9838155,1.1637467,0.9363414,0.9010714,1.0079424,1.261753,1.075455,0.8156286,0.94598395,0.66690546,0.92872846,1.1348968,0.9743433,1.4021983,0.7849066,0.837737,1.9665567,1.0816032,2.0896707,1.9651998,0.74183756,1.639782,0.0934712,1.3912668,0.65399843,0.9571922,2.3781133,-1.2753489,3.0993235,0.89470357,1.2820075,4.166187,-1.5840423,3.5752168,-1.3339589
-2.8340867,0.13089912,-0.97894627,-2.891862,5.17042,1.9826063,-0.19731887,1.0879725,0.35177946,1.758212,1.037341,1.3241456,1.0065135,0.9663704,1.2355578,1.0924959,1.4843322,0.74969137,1.1788151,0.8933925,0.6242497,1.0967381,0.5709355,0.87081367,0.790314,0.6963669,1.1393746,0.87329465,0.572535,1.0388839,1.3423986,1.094797,1.4636762,1.1438173,1.6752535,1.9436771,0.72235477,1.4350669,1.4590021,1.2702682,1.0107613,0.6549473,1.1261244,0.8289672,1.7783227,0.4776653,2.7951221,2.9324918,-3.59921,1.3670402,3.4600697,0.41767636,2.1578767,1.1272565,1.4018565,1.3952326,1.3028866,2.046895,1.1471663,0.96428174,1.0995451,1.6046565,1.6848102,1.2353938,1.6985526,1.9992944,1.1528378,0.98266715,1.0634967,0.48249876,0.7132279,0.7717247,0.7880673,1.1310749,1.0697734,1.0753992,0.9713822,0.9984404,1.179321,1.1387417,1.1616805,1.0574992,1.3991791,1.2081808,0.62183446,0.83941627,0.23104525,0.08036369,0.5986656,1.5893779,1.0631968,-0.85891163,0.50534934,0.6776515,0.809491,0.16921374,-2.2614064,2.3950021,3.9969838,-1.9681541,-1.0973153,6.215385,5.083476,-0.08302699,1.0631144,1.2761598,0.3524664,0.814537,0.9515185,0.84503174,1.0278014,0.8305075,0.8664032,0.6929557,0.07006385,0.73511344,0.32880345,1.3301035,1.9676628,1.0963342,1.5659534,-0.40978405,-0.05948406,1.898367,1.4981005,1.1465279,1.2728885,1.7287638,1.005992,1.22462,1.3277297,0.793652,0.87500995,0.2885092,1.0358971,1.0158436,0.4159879,1.2795653,0.8238805,1.29777,0.92234695,0.5860206,1.51738,0.31797916,2.3338175,-0.41121358,-1.1199139,3.7945714,-2.1696024,-1.6218202,2.6731174,0.07763291,1.6884496,1.8525891,0.46615323,0.38214034,0.913397,1.1654687,1.600295,5.915753,3.7284222,-1.3322759,1.6289601,0.53763664,-2.7729611,0.35416406,0.37174767,-0.8557214,0.87254804,1.4660507,1.0258975,0.40302533,0.7510488,0.5108022,-0.60732555,0.31275573,0.74149233,0.24883215,0.42285115,0.5213534,0.8323409,0.6414168,0.66657835,0.48607504,0.13828473,0.80128956,0.55805165,0.32728556,0.5960916,0.3295469,1.3066726,1.2591885,0.8404664,1.8422233,0.67419124,1.6926913,1.7524662,0.8028026,2.8164914,0.7153683,2.5968504,1.4885961,-4.535008,0.5499594,2.6124072,0.40496033,1.4227875,0.9023022,1.3098687,1.5441204,1.4633405,1.1671532,0.93226194,1.3126687,1.3358057,1.421615,1.0602871,1.2247778,1.3934823,1.2934575,1.4741137,1.2424128,1.1192116,1.2691474,1.2632649,1.3815598,1.4471829,1.140142,1.3234775,1.6212544,1.4667916,1.2225401,1.6582212,2.3142798,1.8896377,1.085788,0.9921603,1.5204468,1.4361167,1.5525645,1.2689741,1.2924312,2.0450788,1.1613984,2.3737195,1.1259941,1.9097744,5.764748,0.91295177,2.6137223,7.0550084,1.6443303,-2.6126382,-1.4796443,1.2096533,1.8864877,0.6460849,-1.1907625,0.752296,1.4005709,-0.2061794,0.6632831,0.50807315,0.22273926,0.24611181,0.41095623,0.7987119,0.5671135,0.96865594,1.1536666,0.7842841,0.7230923,0.923512,1.2473395,0.98334,0.77041763,1.2140557,1.1735384,1.1727204,1.1288993,0.8298966,0.989819,0.95271903,1.0110917,0.86341923,0.811066,0.88159585,0.5625791,0.99917144,1.0959911,1.0310081,1.0429624,0.92701143,0.7034483,0.7320231,1.5519644,0.31170505,0.34026265,1.786118,1.6597767,-0.51594675,-1.724587,3.1201134,3.1799455,0.16069922,1.6549412,0.5432499,0.5912944,1.1067866,-0.97715265,0.675743,0.717788,-0.5311116,0.24561325,0.27955356,1.521217,1.9306481,2.025744,0.46728358,-0.3577415,2.0506682,1.8118207,0.8546223,0.5667362,1.0411812,-0.09183217,-1.4565125,-0.62299013,-0.64027244,-0.5592132,-1.1557,-0.5361182,0.5500848,0.07166028,0.59132355,1.0891026,1.0226518,1.1381376,1.776614,2.119761,1.4853828,1.9048921,0.87261456,-0.9219659,0.8095417,1.72503,0.9571176,0.6106864,0.7985214,0.8663835,0.46296343,0.8869592,0.5535615,0.41000363,1.0575012,0.8514525,0.9842718,0.97724086,0.7686583,1.0192511,1.0456828,0.91570336,0.6111479,0.6844516,0.97167116,0.6698398,0.9125268,1.1703702,1.100482,1.3263772,1.0658896,1.0128796,0.8274372,0.56234336,1.1550688,0.709221,-0.21055712,0.47474673,0.9943307,0.55516195,0.8027934,0.81990045,0.7825583,1.2572218,0.53643024,0.64552355,0.39360225,0.2514305,0.8208507,-0.5969764,0.63004917,0.7953265,0.73334414,1.9984894,-0.11182247,2.4763432,-1.4077619,-3.9450169,6.629027,4.336461,-1.4936006,3.356678,5.1069465,0.95749617,0.28127182,2.351574,1.2373887,-0.102078326,0.751542,0.51979214,-0.2798059,0.40400606,0.9483942,0.985174,0.62390155,0.8774411,0.6758423,0.30927494,1.2023505,0.6008703,0.3913485,1.1201823,0.997232,1.1584843,1.0250261,0.9959248,1.0412546,0.7455961,0.8931764,0.9385884,0.9637317,1.0947843,1.107939,1.302244,1.0310397,1.0450058,1.0968796,1.101266,1.7753415,1.0805099,0.9495958,1.1380635,0.97061557,1.6517695,0.65810615,1.3342662,1.6770872,1.2406354,2.0999563,-0.7285699,-0.18338662,2.0374684,0.5468683,1.008435,0.9434793,0.55541754,0.95807284,0.2677679,0.14487965,0.4418501,0.5073114,0.5425944,0.25456357,0.305119,0.7157046,-0.083195336,-0.665315,0.7750867,1.1012369,0.15388241,1.1045147,1.0933557,0.5011013,1.0147332,-0.34123728,-0.32986957,0.015348324,-0.555917,0.55266476,0.67300576,0.62887764,1.012723,1.0468515,0.77876246,0.97898823,1.5498034,0.70469767,1.1581632,1.6514663,1.7096382,1.3732114,-0.97440946,0.22409686,0.5359336,0.5544026,1.6290289,-1.0356044,1.8799266,1.6649973,0.5849292
0.8147544,0.8553381,1.030799,0.8761309,1.0264872,0.91352385,0.7709132,0.96179056,0.92465234,1.0189116,0.9805903,0.75140375,0.79715765,0.6396004,0.70581955,0.6500268,0.34386474,0.6281298,0.83856213,0.764548,0.25579324,0.8514563,1.3891748,0.3732251,1.150037,1.2510982,1.528622,1.5919477,-0.6721736,0.90224314,1.5957612,0.6853677,1.8609674,1.4393129,1.0628761,1.2424014,1.2992537,1.2893866,1.1046631,1.4547502,1.0892558,0.6815012,1.2340416,0.82485616,0.9148574,2.086913,-0.8726605,-3.8049047,-1.1089933,0.91855806,0.35097882,0.78823,0.8438282,0.5938548,0.57447636,0.11970608,-0.19352074,-1.159506,-0.101077914,0.23619926,-0.8368879,0.018967252,0.010288919,-0.15016046,-0.17281823,0.05513408,0.13754259,-0.038183913,0.08856443,0.45849025,0.9539174,-0.033066444,-0.050646283,0.26253197,0.008213296,0.46587116,-0.01908674,0.5896129,1.1180159,0.29113948,0.6900242,0.7613385,0.6228493,0.8060011,0.52331316,0.855333,0.22633792,0.26115006,1.732139,1.1260633,0.58886224,0.5254111,0.78477687,1.043541,0.67728347,1.3784876,0.9367694,0.10679041,0.79157007,1.2183217,0.5548324,1.7455947,1.8309724,-0.79545635,0.5112921,1.2681733,0.85465014,1.8920428,0.9341494,0.41926336,0.68723226,0.44169223,0.9210216,1.3166747,0.83457476,0.34077913,0.470806,0.8439696,1.0441414,0.68873084,0.22110015,0.363388,0.5820121,0.5569992,0.7879322,1.1313207,0.78309166,0.5520876,0.48929563,0.2618833,0.64893883,0.57608515,0.14505485,0.4099787,0.30604428,0.31909654,1.517174,1.1102015,-0.834478,-0.7306338,0.43069974,0.66677564,0.19129623,0.9051019,2.1496139,1.8939196,0.049725898,-1.1085955,-0.21065715,-0.9957205,0.9139616,1.2286696,-2.252935,-1.3545088,-1.1290083,-0.23414183,0.71578944,0.5836645,0.7644331,0.055546883,0.09755552,0.163586,0.29402083,0.044889472,0.4429723,-0.46782216,0.91084766,0.6585444,-3.856162,0.009661267,1.587576,-0.25608602,1.2869247,0.5704815,1.4300017,1.8705477,1.0750809,1.28883,1.1162286,1.3772709,1.1973969,1.1375505,1.6048976,1.3934232,1.1713138,1.2963457,1.2657305,1.4662547,1.6935073,1.5251142,1.3697175,1.2593213,1.4521506,1.4218192,1.3656898,1.241955,1.3035231,2.1531744,1.5585026,0.93486816,1.478479,1.4316834,1.4001824,1.3099136,1.1406531,1.4089568,1.609894,1.2857317,1.0708264,1.1229024,1.2775075,1.5242172,0.8236051,0.8111506,0.9606266,0.7973631,1.1245748,1.1170648,1.7087992,0.46573183,1.6261045,1.4398638,-3.4466958,-0.6175712,1.2352029,-0.3648671,0.54278654,-0.25394097,0.5356517,0.53756565,0.1590103,0.9718799,0.057770204,0.17261425,0.3458962,0.12741056,0.44673708,-0.16170597,0.61097723,2.2329445,1.2832257,0.2944831,0.5198274,1.3078469,1.596327,-0.08438911,-0.698675,1.4703372,2.8641145,0.721675,1.9417489,2.7576938,0.06469553,0.904742,-0.10712232,-1.1711528,-0.72195,-0.4337579,0.30179527,-0.37484908,-0.0048894743,0.12783213,-0.40445557,-0.43080148,-0.46905306,0.30027887,-0.46308446,-1.4351144,-0.57492626,-0.7382092,-0.5929213,0.26807675,-0.095891684,0.17404546,-0.4829116,-2.2567759,-0.32115668,1.170565,0.28704703,0.5975159,0.5721643,0.3539998,0.40515405,0.277666,0.052608863,0.23047425,0.2536106,0.6099623,1.8056829,1.4552718,1.1237268,1.6008745,1.4435871,1.3488591,1.6755227,1.1771044,1.008173,1.5145011,1.7283975,2.0277083,-1.1619129,-1.4289943,1.4251548,-0.03252111,1.0312815,2.2278082,0.3590068,0.2653507,0.17564924,0.19190657,0.61188674,0.28316233,1.0288235,1.2733061,1.6933652,2.4631977,0.0036174748,-0.7501461,0.9169669,0.57913405,0.47539082,1.2267846,1.1965113,1.4967085,1.3367724,0.98139584,1.5698072,1.1041325,0.56869555,1.3495897,1.2345504,0.47837293,0.9044805,0.9425236,1.3361276,1.6777366,0.74987423,0.9693144,0.8040193,0.69959813,0.5980842,0.8332608,1.6597507,0.7792899,2.0272675,-0.5208609,-0.33394387,4.144974,-1.9156083,-0.029023573,4.0032854,-4.4821067,-2.3002145,2.958344,0.44211066,0.73541206,0.36943924,0.14726275,0.5736816,-0.13610248,0.4368363,0.045338098,-0.37798795,0.3490463,0.38545325,0.41795477,0.523989,0.9374102,1.0713568,0.72770274,0.76486146,0.8032751,1.095768,0.8728928,1.17007,1.7619538,1.4330522,1.6767358,1.5939482,1.8542975,1.7135689,1.7594411,1.7237788,1.1608813,1.9284002,-2.0712361,-2.705513,0.8846182,-0.24356258,0.68089986,0.091532305,0.013770673,0.48676568,-0.4171582,1.826857,-1.1272823,-0.3479943,1.7295557,-1.6647476,0.7854903,0.8549255,-0.5516344,0.6677379,-0.17595313,-0.06595429,1.1740074,-2.5528889,-2.444071,3.2077148,1.2698021,-2.8129997,-1.9421731,0.413367,0.07564023,-0.17802681,0.52237564,-0.02089684,0.17379528,0.3856278,-0.07634111,0.58160675,0.90388334,0.6552613,0.60615176,0.37089047,0.94244754,0.60303843,0.33980685,1.272197,0.8157845,0.54849035,1.1140647,1.0157348,0.8075132,1.332147,1.1989374,0.973114,1.5355505,1.1579468,1.141287,0.9548948,1.6585974,1.096064,-0.88225555,1.0007006,1.7298535,0.6839019,0.23138481,2.762122,1.6445074,0.93308634,6.3098555,1.0677608,-0.56535536,3.2802565,0.39078304,1.0312425,1.3289379,1.2724433,2.0344481,0.88998246,1.4344248,1.8633114,1.939449,1.319844,0.24414359,1.4045752,1.8395218,1.8036636,1.1907856,-0.6117838,-0.20842384,-0.4269596,-0.33700633,0.21097589,-1.2573127,-1.2655739,-0.110761665,0.07447199,-0.654279,-0.9845114,-0.63895166,-0.66083276,-0.9782302,-0.9356043,-1.108876,-0.26297328,0.40239194,-0.4685566,-0.47621623,-0.49326286,0.56291884,-2.7261209e-05,-0.9238024,0.36573395,-0.21458073,0.6391075,0.90246755,0.652633,0.83823025
7.0550084,1.6443303,-2.6126382,-1.4796443,1.2096533,1.8864877,0.6460849,-1.1907625,0.752296,1.4005709,-0.2061794,0.6632831,0.50807315,0.22273926,0.24611181,0.41095623,0.7987119,0.5671135,0.96865594,1.1536666,0.7842841,0.7230923,0.923512,1.2473395,0.98334,0.77041763,1.2140557,1.1735384,1.1727204,1.1288993,0.8298966,0.989819,0.95271903,1.0110917,0.86341923,0.811066,0.88159585,0.5625791,0.99917144,1.0959911,1.0310081,1.0429624,0.92701143,0.7034483,0.7320231,1.5519644,0.31170505,0.34026265,1.786118,1.6597767,-0.51594675,-1.724587,3.1201134,3.1799455,0.16069922,1.6549412,0.5432499,0.5912944,1.1067866,-0.97715265,0.675743,0.717788,-0.5311116,0.24561325,0.27955356,1.521217,1.9306481,2.025744,0.46728358,-0.3577415,2.0506682,1.8118207,0.8546223,0.5667362,1.0411812,-0.09183217,-1.4565125,-0.62299013,-0.64027244,-0.5592132,-1.1557,-0.5361182,0.5500848,0.07166028,0.59132355,1.0891026,1.0226518,1.1381376,1.776614,2.119761,1.4853828,1.9048921,0.87261456,-0.9219659,0.8095417,1.72503,0.9571176,0.6106864,0.7985214,0.8663835,0.46296343,0.8869592,0.5535615,0.41000363,1.0575012,0.8514525,0.9842718,0.97724086,0.7686583,1.0192511,1.0456828,0.91570336,0.6111479,0.6844516,0.97167116,0.6698398,0.9125268,1.1703702,1.100482,1.3263772,1.0658896,1.0128796,0.8274372,0.56234336,1.1550688,0.709221,-0.21055712,0.47474673,0.9943307,0.55516195,0.8027934,0.81990045,0.7825583,1.2572218,0.53643024,0.64552355,0.39360225,0.2514305,0.8208507,-0.5969764,0.63004917,0.7953265,0.73334414,1.9984894,-0.11182247,2.4763432,-1.4077619,-3.9450169,6.629027,4.336461,-1.4936006,3.356678,5.1069465,0.95749617,0.28127182,2.351574,1.2373887,-0.102078326,0.751542,0.51979214,-0.2798059,0.40400606,0.9483942,0.985174,0.62390155,0.8774411,0.6758423,0.30927494,1.2023505,0.6008703,0.3913485,1.1201823,0.997232,1.1584843,1.0250261,0.9959248,1.0412546,0.7455961,0.8931764,0.9385884,0.9637317,1.0947843,1.107939,1.302244,1.0310397,1.0450058,1.0968796,1.101266,1.7753415,1.0805099,0.9495958,1.1380635,0.97061557,1.6517695,0.65810615,1.3342662,1.6770872,1.2406354,2.0999563,-0.7285699,-0.18338662,2.0374684,0.5468683,1.008435,0.9434793,0.55541754,0.95807284,0.2677679,0.14487965,0.4418501,0.5073114,0.5425944,0.25456357,0.305119,0.7157046,-0.083195336,-0.665315,0.7750867,1.1012369,0.15388241,1.1045147,1.0933557,0.5011013,1.0147332,-0.34123728,-0.32986957,0.015348324,-0.555917,0.55266476,0.67300576,0.62887764,1.012723,1.0468515,0.77876246,0.97898823,1.5498034,0.70469767,1.1581632,1.6514663,1.7096382,1.3732114,-0.97440946,0.22409686,0.5359336,0.5544026,1.6290289,-1.0356044,1.8799266,1.6649973,0.5849292,2.4479573,-1.5810163,7.249017,7.106179,-3.6946712,-0.30152455,-0.40127406,-1.1281677,-0.71245956,-0.22106804,0.37848845,-0.5609111,0.85405546,-0.43696553,-0.959787,-0.15432547,0.5245218,-0.5076108,-0.699027,1.3907279,-0.22121765,-1.0635712,-0.92679906,-0.034139425,0.7032519,-1.089385,-0.6914265,-0.82236385,-1.08755,0.5449953,0.23221023,-1.2949904,-1.2123528,-2.0300107,-3.34569,0.06252109,-0.34059846,-1.3464671,2.3218327,0.09234473,-0.57346475,0.74482256,-0.12356279,0.07366153,0.17752758,1.7617676,1.3545117,0.73047924,0.99658823,0.34644514,0.98029846,0.8091025,1.0136565,1.522023,1.1235324,1.5929526,1.8099344,1.2593708,1.260848,1.4937047,1.5497725,1.6411461,1.3190588,1.3474449,1.6408117,1.6458472,1.527966,1.1132883,1.6665523,0.59798265,-0.27768978,1.8731948,1.8277493,0.8784211,1.1235286,1.0406331,1.1637516,1.122908,1.055657,1.0680214,0.9885768,1.2089764,0.93514186,0.8735797,1.1630862,0.84725255,0.7946972,0.9691985,0.96289617,0.8838589,0.84657645,0.7897655,1.011179,1.0384464,0.89558774,1.3958871,0.93669283,0.7755157,1.4605271,1.3234563,0.50152504,-0.5925417,0.15270503,0.37101752,-0.04063709,0.8123327,0.67308277,1.3396164,-0.14462607,1.2240384,4.1946783,-1.5648466,-0.66401786,2.5914493,0.049593054,0.26145557,0.4211634,1.5915384,1.130227,-0.9184271,-0.6788548,0.72789,-0.16040343,-0.3185761,2.4859533,-0.34982595,-1.1606004,1.3506795,0.68523455,0.40182942,0.72526354,2.1225395,-0.7057069,-1.1914887,1.7395985,0.34595037,0.78672504,1.1495852,1.6762722,1.1475827,-0.47823572,0.17359251,-0.06052183,1.0163361,1.0859377,1.5238787,1.3112211,-0.123943046,2.1797435,0.52980447,-0.62445754,2.0461462,1.580988,0.9403748,0.79849803,0.5212344,0.8403551,1.2119187,0.9357104,0.7639231,1.1206374,1.1303632,0.8061831,0.63875,0.7693096,0.64763844,0.9954709,0.83544433,0.8905484,1.6065737,1.1590192,1.1543596,0.796654,0.6982045,1.0340567,0.3733705,0.58597976,0.57625437,0.817437,1.4170719,0.9528842,0.93073595,0.8263278,0.30902657,0.19621973,0.9150966,1.0366752,1.0990804,2.4310396,1.7916945,1.0092041,2.9796553,2.7559867,0.17464815,3.035423,3.1701338,-1.4697863,0.146982,1.0120647,-0.4252423,-2.1436946,1.475459,2.6842341,-6.184916,-3.6903818,2.3116953,-0.19974631,-0.54413533,0.34830198,0.52373,-0.33844864,-0.4813497,-0.026586792,-0.7221391,-0.39865583,-0.5664812,-0.16250604,0.39092016,-0.4788783,0.31825,1.1035206,0.8553401,0.9901388,1.1331723,0.98357147,1.2778889,1.4170563,1.0299134,1.7308671,0.6263123,-0.027174799,1.0481979,0.19639403,0.7801433,1.395796,0.8249831,1.0368959,1.331113,0.91647214,-0.08609114,0.26050103,1.1098396,0.98828816,1.5548968,1.0450318,-0.07803389,2.6719847,3.2579637,3.6173,5.5068197
0.7528973,0.7685975,0.86892015,1.1172136,0.86999786,0.16131891,-0.46301696,0.002124492,2.1879544,1.9430809,1.1073632,-1.4407909,-1.8901223,1.9884219,0.9059587,0.6756376,1.5474194,1.1114155,1.9245117,1.5587138,1.67337,1.5002205,1.2960031,1.364239,1.0782773,1.7288103,1.4220352,1.7027757,1.487877,0.57987046,1.809934,1.8677303,1.793194,1.893602,2.0695474,2.187788,1.5642002,1.2558496,0.8096284,2.3887446,-0.46755084,-2.5966852,1.6023676,0.972132,0.64233094,1.246044,0.6307944,2.3257897,1.2521496,0.87131727,1.5087842,0.9892748,1.6135256,0.6192383,1.4875093,1.1247542,0.5359049,1.8734552,0.19835886,2.2234607,-0.7542803,0.9080193,9.18151,2.0715191,-0.21007536,2.8402839,1.129378,1.6677451,0.9256799,0.99684674,1.2098823,0.7670755,0.8667009,0.7973426,0.8741029,0.6002375,0.86782676,1.4210994,1.4548525,0.9771788,0.99519116,1.0973884,0.57913065,0.25810328,1.6257352,2.1259797,0.2266202,1.128552,1.8537608,0.10282353,0.901153,1.0626471,-0.25670817,1.9964869,0.14775658,-3.255979,0.58267206,1.3349264,-0.048004813,0.68868035,0.23979828,1.2600547,0.55590945,0.7598605,1.869212,-0.86638165,0.16090743,-0.9999443,0.7193673,4.376848,0.26559338,0.8706988,0.8282886,0.36408034,1.3094352,0.56458664,1.3399856,0.2847474,1.9207517,0.8752252,-1.6731681,1.3342495,1.2772737,0.8843257,1.2565943,0.72899705,1.2339642,1.3589903,1.1903123,0.91919404,1.0819771,1.3239443,1.540964,1.2290176,0.946992,1.3224065,0.97600704,1.057146,1.1220745,0.85097224,1.2594769,0.82080424,0.917283,1.1922549,0.6119394,1.095287,0.69005495,1.2525227,1.3902524,0.24483372,2.4105608,0.42165998,-1.4841856,1.7933,1.8208276,0.88446444,2.277561,1.1374834,0.43896747,3.891931,-0.1869665,-2.4523664,0.26248905,-0.99354595,0.7937948,0.31847504,0.13135497,1.4679765,0.49432525,0.99893856,0.59255683,0.724417,1.2081634,0.56413335,0.86342025,0.7794599,0.93851775,1.3924984,1.2064306,0.9779687,0.5194687,0.52243584,0.82838005,0.6349916,0.5873597,0.91533893,0.8602897,0.796811,1.2300203,0.7801768,1.041179,1.6443845,0.49350592,1.0023367,0.75084436,-0.5178984,1.4789337,2.5990868,1.7287294,1.6860265,1.7293721,1.4464229,2.2098541,2.170749,2.016612,1.8566368,0.30841157,1.1174747,1.6501081,0.713393,1.2402663,0.8569992,0.09148478,0.4652814,0.31668645,0.17721795,1.1826427,0.8793585,0.26860362,0.8076299,0.3288497,0.474409,0.6454408,0.14310305,0.48987585,0.44756857,0.27335283,0.40031615,0.42662263,0.42884755,0.39062932,0.571398,1.0801296,1.3154467,0.9872073,0.81124455,0.00020379433,-0.13954525,0.46195865,0.15940803,1.3625709,0.6413247,0.9002614,0.7438875,-3.2251818,-0.02075688,1.7515175,0.14641029,1.3577248,0.7056633,0.94407,0.57267225,0.54005986,0.8751662,0.8344133,1.1053302,0.29005706,3.483984,-0.17426842,1.114168,12.35845,5.0648937,0.027365781,2.3912055,0.67682236,1.670681,1.7543176,1.8986728,-1.3654759,-0.5978056,1.6357355,0.095066406,1.1350653,0.5449688,0.64296836,0.9413791,0.27130687,0.9009315,0.7441854,0.94844085,0.72652346,0.30606788,1.0062797,0.97087246,0.71404445,0.6330995,0.48798904,0.72065187,0.7064861,0.5877802,0.71059066,0.7461921,0.4786719,0.511549,0.8580943,0.6992698,0.9968857,1.0333164,0.6962157,1.2195649,1.3765821,0.7508986,0.8110131,1.5578107,-0.2762188,-0.8737465,1.9195418,1.165538,-0.55307007,-0.15318702,0.4220489,1.0957184,0.9258043,0.827495,0.80312186,0.84306735,1.0906008,1.196285,0.47100133,0.53167707,1.7198128,0.6655167,0.84727955,1.3501376,1.1743667,2.2592633,1.6198914,0.5389645,-0.81299955,0.013169712,1.3641841,0.22954862,0.7352615,1.2635404,0.6426524,0.30015782,0.79759926,2.1359518,1.1095774,-0.14034863,1.1851504,1.4143064,0.86360705,0.71570027,1.0264027,1.2206657,0.25765687,0.27661264,1.1331732,0.8964705,0.50788754,-0.4262563,0.16845535,0.9923097,-1.4460706,2.9105048,3.9361315,-3.705488,-1.440043,1.3201278,0.043463733,1.8965901,0.69253653,0.56286585,1.998698,1.3881989,1.7477325,1.1415808,0.93672943,1.5413958,0.99196315,0.9747433,1.4217169,1.7991245,0.9167643,0.4591601,1.6445631,1.4300746,0.7531209,1.0104767,1.3934591,1.2584052,1.3474663,2.0155714,1.6107217,1.3860323,1.497517,1.204344,2.2927623,2.1975768,1.4860793,1.846083,-1.422517,-1.3780211,1.9687754,0.42845467,0.39077708,1.2844326,0.8181022,1.1011852,1.0914698,1.385674,0.46834016,0.27208626,0.77168286,1.0077363,1.9171313,0.39683807,0.6798092,1.8602495,0.48673669,0.21736085,0.62525386,1.0207981,0.5007188,0.23510681,0.9604762,1.135284,1.1355691,0.86326826,0.9617429,1.0980529,1.2454625,1.319816,0.8854348,1.1002637,0.9019689,1.0832375,1.3462865,0.62176424,0.9176974,0.9918119,0.9644437,1.2517337,0.7530451,1.1729438,1.3710184,0.6477434,1.0989462,1.1092081,0.71608454,1.0647509,1.0042877,1.1527463,0.85491186,0.66194427,1.1510464,0.98651457,1.1249831,1.1029,0.7948105,1.0648661,0.8443702,1.2516422,1.4311162,-0.6925576,1.0817745,2.287739,-1.4607223,-1.0659207,0.7530538,-1.3062171,-4.2858443,-0.9614212,1.9716544,0.8706737,1.699575,0.7520043,0.93712556,2.1149237,1.5317409,0.7802359,1.6414535,1.1202471,-1.9157934,-0.25640717,0.93390286,0.1960245,0.72440344,0.37395024,1.4802419,1.578622,0.17733172,0.9820313,1.2763538,0.9043464,0.8195015,0.7351541,1.293811,0.7170445,1.1510397,1.0931759,1.176183,1.0322952,-1.6336398,-0.056327775,1.073037,0.62208855,1.2870848,0.20630676
0.64494705,2.2115674,1.649303,2.091893,-0.27073756,-2.8084507,1.5579563,1.1774845,0.44343033,1.4218847,0.8290728,0.9834283,0.20043066,0.7501461,0.69409883,0.39559737,1.1054127,0.7923354,0.89323854,0.5686946,1.0095474,1.6314306,1.3749543,1.4784751,1.4162828,1.8805324,1.1170597,1.9827137,1.2333901,-1.8837758,0.6138046,1.1750941,0.4160229,1.2977017,0.9182371,1.3039128,0.83973753,1.0823771,0.67421633,0.32534054,0.72604865,0.25182176,1.1107827,0.14357619,0.99046564,1.0419345,0.9812334,2.6045632,-2.099685,1.7212238,5.037941,0.17508551,1.7995738,1.4122713,0.73554885,1.184834,-0.066118844,0.74881744,0.6655408,0.5432505,1.1818529,0.66893274,0.5910003,0.9292004,0.93745464,0.8733981,0.73109645,1.143644,0.50136054,0.6444647,1.297859,1.1041975,1.8539839,0.751698,0.3336443,-0.74336827,-1.3998246,1.0396101,0.583011,0.27639717,1.0261979,0.5568954,0.8719507,0.8078382,0.5509569,1.3759722,0.89889145,0.13092299,0.30373994,0.3987317,1.2857739,1.2960967,1.0865718,0.9581125,1.562478,1.1722177,-0.4124233,2.83297,2.2640975,0.67185944,1.3556993,0.77674687,4.890516,4.4723563,-0.32699135,0.40226158,5.37254,1.9119442,0.7841859,5.4116535,0.71556956,0.40315327,1.5236882,0.2540892,1.566777,0.5502228,0.72048485,1.1734568,1.270442,1.5022888,0.8994832,1.0782952,1.1653135,0.95265174,0.69171095,1.1875161,1.007071,0.397847,1.2587922,0.91753536,0.5452642,1.1269895,0.93091136,0.8766303,1.1239481,0.39518744,0.47498128,1.2680206,0.7796859,0.76448196,0.7449273,0.86510587,0.8761522,0.61633015,1.0854642,0.9019953,2.2124996,1.5719516,1.5295954,2.4259167,-1.3384143,3.5857992,5.834145,0.23773472,2.2174127,2.26463,0.79163486,1.7868763,1.819883,2.0037134,2.1579225,1.7633057,1.9137805,1.8691928,1.5007806,1.888636,0.72052383,2.1060262,0.9793185,-3.0049229,-0.016907351,0.68856263,0.0072807064,1.5042535,0.9171877,1.1275698,0.9684482,0.72805685,0.95743996,0.79756117,0.9164262,0.8908224,0.87243253,1.0939605,1.0702573,0.78628516,1.0698065,1.0362164,0.9456918,1.3405987,1.1363878,0.52904403,1.3925564,1.2261845,0.61193657,2.255187,-0.35292378,0.62261665,3.9582696,0.61901116,0.62687117,0.846762,0.60881513,1.4481664,0.59763217,1.2747396,1.4220821,1.2596843,0.493152,0.047340196,0.75987905,0.6896287,1.3247154,0.8358598,0.60633016,1.1591258,0.69649255,1.0920625,1.8657222,2.4221396,1.5491406,1.1463133,2.130808,1.359264,1.1180539,1.9369116,1.3768297,0.69604623,1.7816296,1.9999888,1.6828387,2.085642,1.1906573,2.263095,-0.041317903,-2.4781897,1.4227959,0.78437155,0.073953584,1.5240985,0.64881027,1.1016389,1.7746977,0.9795023,1.0152025,2.449301,0.09465315,1.2032259,4.193381,1.1182413,1.0019773,1.5962248,0.01084511,-0.13310133,1.9498053,1.8597248,0.97857237,1.7131368,1.013338,2.7334828,-0.29172048,-2.904782,1.0385345,0.47755468,0.23122351,1.0298845,0.31944707,0.79959524,0.43600306,0.5279258,1.1911218,0.8883179,0.700175,0.34009668,0.48358494,0.8006587,0.24444875,0.695823,0.9542749,1.0486168,1.1047311,0.86842525,1.4386177,0.6739128,0.48337212,0.9602069,0.37377626,0.53117865,1.4839863,1.5466797,0.5360824,0.53435475,0.2615655,0.55924284,1.0156052,0.28534162,1.2212031,0.42683303,1.8094217,3.348765,-0.6380789,0.39804068,1.3729788,0.28030074,1.483388,1.2995057,1.1079072,0.42432234,0.9465725,1.024361,0.7671043,1.7745526,1.0152044,0.6437479,0.6957103,1.2422197,1.4742473,1.0001165,1.3350314,0.906898,0.47190857,0.8331256,2.5625958,0.59274507,-1.8125082,0.98886764,0.37291884,0.371138,1.7490227,1.0364572,1.8936311,1.2193081,1.1253937,1.7440819,0.4953056,0.51915044,1.0589476,0.8304553,0.9733597,1.3204614,0.89451504,0.9262325,1.1745481,0.9018951,1.4016191,0.9189753,0.98171437,1.249608,2.895577,3.8193357,-2.257542,-2.6581976,0.75621754,0.32034346,1.9839066,1.0486113,0.5170309,1.1289514,0.60186166,1.3366253,0.71557933,1.0946953,1.6203719,1.2521062,1.298891,0.9521575,1.2084551,1.5055798,1.3457248,1.0646375,1.3377548,1.0474021,0.68178356,1.5873868,1.3095692,0.7239478,0.89410555,0.681203,1.1701286,1.3170177,0.9995381,1.3951527,1.0871657,0.8645359,1.4931648,1.2767347,1.4054183,1.6112584,1.2340144,1.5972672,1.1961161,1.535175,2.2177198,1.4464434,1.6079644,1.19672,1.1672881,2.5978212,1.7460718,0.84714353,1.4761432,1.520192,1.9356657,2.0478134,1.2227563,1.2401754,1.2192012,2.0072737,0.85384256,0.029865943,3.481425,1.8531775,0.22855388,1.4688046,1.0277739,1.4184871,0.62099385,0.7264258,1.1005005,0.8911708,1.115512,0.2987035,0.47982267,0.64808667,0.33015725,0.539616,0.35724524,0.72520065,0.80214953,0.47796097,0.960104,0.9307819,0.8069062,0.8423587,0.83722085,1.2471561,1.1141162,1.0298586,0.49683523,0.53508204,0.81576335,1.4979242,2.3282225,0.44102144,1.725172,1.237563,1.933625,2.9783704,-1.0776639,1.7804309,-2.4283063,-0.39538747,8.010574,1.0512315,1.3745552,2.1970887,0.3702314,2.3885295,0.44761068,1.2098498,1.6148068,0.87053734,1.0102209,0.85486597,1.6783178,1.1687113,1.064068,1.5619284,1.5258155,1.4034855,0.38363817,0.62737453,1.9896694,1.754881,1.4093933,1.7490104,1.138293,2.1705208,1.1145324,-1.7101976,0.77205396,1.7092934,0.671002,1.3159868,0.5846029,0.33513594,1.1581109,0.051364437,0.7171633,1.0679713,-1.4650524,0.50340325,1.4915682,-0.028217144,0.45594347,0.3975669,0.59102553,1.499239,1.5533849,0.72078687
0.6552557,2.4188554,-0.9801991,-0.24046038,2.259013,1.1669601,1.6129357,1.2065463,1.570162,1.736949,0.9603928,1.3439697,1.4225041,1.4837774,1.3265897,1.2319187,1.4096655,1.3436946,1.4526455,1.5878253,1.6967853,1.3812402,1.2594541,1.382707,1.3155826,1.512838,1.602518,1.6073499,1.1767284,1.225101,1.1052845,0.96291256,2.3041275,1.9668785,1.1754037,1.447101,0.7007352,0.7145667,1.5509613,1.1049105,1.6136713,2.0661204,1.0365187,1.5386842,1.4842427,0.82334715,0.22323103,1.6858025,2.9545867,0.76023555,2.618888,1.7482942,0.12948188,2.8922303,1.329991,1.5483012,2.4385533,1.4047302,1.6821767,1.5976946,1.3091596,1.1849668,1.7885166,1.3714377,1.1868737,2.0337894,1.7003248,1.6596304,1.8389367,1.3360252,1.3712225,1.5172642,1.6797613,1.4844449,1.126648,1.9771392,2.0404115,1.5543014,1.2982461,1.0402902,1.4031178,1.5730994,1.8602383,1.71482,1.4999561,1.7649393,1.5051996,1.6528364,1.9514613,1.857808,2.1590295,1.6259614,1.8897371,1.2387512,0.25440443,2.0787826,-0.4949134,-0.99477625,1.9122354,0.64322203,0.738185,0.99246246,0.6591634,0.85318875,0.9520949,1.654987,1.3629881,0.74388564,0.97046,0.94915235,0.9027797,1.5091171,1.4694568,1.2109807,1.1215353,0.7777252,0.94734764,1.0146646,0.81262803,1.1071006,1.0007551,0.9121783,0.85699,0.6236032,1.1045862,1.0486068,1.0155083,1.2966065,1.0518132,1.1654766,1.1249452,1.1695824,1.5670404,1.3955457,1.2319078,1.2646579,0.89671975,0.8110073,0.97070724,0.6979746,0.90416175,1.0496539,0.5577084,0.6807368,1.8804597,1.9272976,0.83728695,1.6666749,3.0265439,3.9411373,-0.2968089,-1.96335,4.440768,2.3500988,0.16154379,1.5301005,0.00083470624,1.1793814,0.63216704,0.3744626,1.2611011,0.6248165,0.8686613,0.73800933,0.4397963,0.3205211,0.5108859,0.95288277,0.6266417,0.65558064,1.1549696,0.8370384,0.8462247,1.0846908,0.21238482,0.63056606,1.2285619,0.4818001,1.1206775,1.2011287,0.6235001,1.0813123,0.5764813,0.89405197,0.40858817,-0.30781925,1.3881682,-0.12540494,1.3882437,3.65417,0.43473494,1.1121818,1.2042446,0.33913475,1.6767873,1.7277576,1.5506734,1.5255182,3.4105844,0.331855,-3.0993526,1.1354076,0.99561614,0.43902427,1.4815873,0.2599078,1.0489854,1.1889819,1.2273582,0.6898744,-0.042424783,1.0204839,1.1305593,0.60502106,0.44825095,1.1694543,1.7416975,1.3767266,1.3171518,1.1215556,0.8147483,1.3880687,1.398826,1.2233145,1.3250722,1.4201299,1.9046276,0.77123964,2.0114772,0.6780418,-2.7215405,0.80676913,1.1312836,0.086162195,1.0888358,-0.041214336,0.59431165,1.1471711,0.7485224,0.9117332,0.8190709,0.7775014,0.8516247,0.82617617,1.1603577,0.851621,-0.17365079,-1.9517466,-4.241678,-1.5974722,0.23020066,0.6676899,2.5787923,0.8100728,3.345606,4.9142537,3.366756,1.4170722,0.31302994,1.4962087,0.0081538465,3.868263,4.4663525,1.2571713,2.224226,1.0760862,2.0283744,2.1699228,1.3318427,3.0651443,-0.86543214,-2.194339,1.3716862,0.5697364,-0.056622185,0.41037637,1.3217062,1.572068,1.620217,2.6910868,1.3973467,1.1413221,1.673655,0.65439606,1.0754033,0.8376575,0.8240835,2.0780406,1.7480673,1.3334465,1.4565489,1.6898738,0.99918664,2.2301185,1.5527387,0.82758826,4.6567507,-1.4539286,-1.568618,4.5851398,-0.2956239,-0.04028683,0.82010514,-0.09988038,1.3369586,0.56353813,1.24476,1.3980019,1.1723408,1.3252261,0.90057606,1.2402631,0.9174369,0.9568454,1.2402805,0.80966216,0.76736856,0.99169433,1.2527312,0.76318836,0.52686346,1.0653675,1.2819438,1.3152143,0.6016882,0.46552724,0.9358098,0.6014334,0.82442963,1.136808,0.9666687,0.9472627,1.1288726,1.0494984,0.8987968,1.1403468,0.9917172,1.0096431,0.7486234,0.48790073,0.83310443,0.9349417,1.0078707,0.37645772,1.8962278,0.83210737,-0.23169166,4.3431582,0.6957228,-0.82045585,2.0692458,-1.1482558,4.841233,6.873633,0.6326819,2.2069376,1.4520355,1.9330537,0.962643,-1.9366852,1.6839759,1.9290718,2.1303875,1.5776556,-0.04178652,1.5719366,1.3657306,0.6416542,1.1534272,1.5131075,0.9956493,0.97825915,0.91171116,0.54908764,0.7588968,1.0407999,1.0623113,0.20299162,0.34196386,1.0303771,0.56234705,0.82321745,1.1275799,0.5529423,0.6390529,0.68236065,0.87589574,0.9674327,0.82723707,0.8367388,0.39764014,0.67340225,0.5321723,0.8547669,1.4915127,0.2761889,0.9006798,1.1262839,0.117583595,1.0603707,0.6879532,0.3558427,1.0469011,0.736662,0.7437722,0.66633284,0.45030302,0.8375292,0.8408498,0.455023,-0.28806484,-0.3460732,0.89652276,1.2696663,1.0972888,0.72557557,0.95578045,1.6082058,0.6050354,0.7144392,1.0467374,0.72169405,1.0740347,0.59603465,0.8235822,1.2937094,1.270164,0.99523866,0.81693983,1.375701,0.66136307,0.6659678,1.1358954,0.7589674,1.290262,1.3022896,1.3651092,1.3573837,1.0491668,1.4291509,1.3583384,1.5234917,1.6425066,1.4659013,1.2843833,0.9660166,0.66166353,0.93996346,1.6795974,0.33172053,-0.56939906,-2.0090828,-1.5488057,1.7796092,0.8203901,0.42788544,0.85550326,0.48674515,0.7420136,0.65031666,0.8647467,0.6174247,1.0076132,1.0430021,0.5352437,0.88864326,1.0395162,1.1058747,1.0930508,1.2124239,1.3495526,1.0292469,0.7666416,0.8403456,1.0147043,0.89939356,0.859787,1.2610224,1.1726905,0.9010961,0.46481058,0.3783757,1.1254598,1.1067644,1.549202,1.390526,0.9521972,1.8472052,1.6196097,1.3944476,1.2729874,1.9188519,1.2474217,0.2890142,1.6851832,-0.51183534,2.2293584,4.4754806,-3.4049535,-3.3346334
0.22773288,-0.233277,-3.1744192,-0.0028489977,0.116167635,1.1122597,1.032767,-0.035891693,0.5624839,0.44716334,0.7564323,0.23362431,0.16155903,0.58733606,0.22663027,1.1836331,0.5102393,2.237891,2.503959,-3.0001616,-1.0687939,1.3559495,0.25564554,1.4392389,0.9399191,0.876519,0.9794222,0.5280387,0.8281393,0.49722016,1.0667546,1.2003486,-0.06926971,0.54038626,1.0024353,0.8028512,1.0765111,1.0628884,1.2015092,0.6266268,0.95710254,0.49152264,0.73389214,0.7753437,0.34100026,3.385745,-1.2440338,-2.1853745,4.019731,1.1493938,0.20248206,1.4051701,0.7050675,1.2572112,0.7598201,1.0219954,0.9142603,0.32308853,0.014188244,0.41288614,0.86401176,0.94986755,1.9855684,1.422927,1.2685795,2.058174,1.1619625,1.3624761,1.7937709,1.2261702,1.7632006,1.9042056,1.467159,1.5470389,1.775426,1.6673139,1.3642714,1.566668,1.0282022,1.3890326,1.7681919,0.9461181,2.2233322,0.7760047,-1.2108792,0.358154,0.40759212,0.56563896,0.58719385,0.074337624,0.49486548,0.26873824,0.14488837,0.5218581,0.6652283,1.7088162,2.0329223,2.8667488,3.2782154,-1.7091469,-0.49626482,1.9179354,-1.4843957,-1.7090067,-2.3746421,0.3739155,1.1577483,0.40220478,0.98833615,0.725134,3.858142,1.3100398,-0.1443281,1.9110091,0.2008157,0.63059807,0.6799734,-0.5642555,-0.3836279,-0.3889971,0.13389838,0.012139928,-0.09634308,0.85833144,0.07433917,0.3378841,-0.23600759,-0.4708512,1.0227975,-0.8602114,-0.78529006,0.90616286,0.55024725,-0.19112216,-0.22246994,0.34078172,-0.6614411,-0.1808349,1.4904356,0.6070042,0.8688761,1.497117,1.065355,1.018646,0.49446753,1.0400115,1.1472081,0.95289016,1.1811651,0.9538378,1.2507037,1.0890512,1.2560914,0.95680326,0.6181635,1.3899149,0.9955486,0.55463165,0.9115912,1.0015457,0.94413495,1.1291909,1.3074989,1.0732536,1.0016171,1.3320882,1.1742258,1.1295923,1.326859,0.91926193,1.2111608,1.3938704,1.3555022,1.1584736,1.1914128,1.6182466,0.115136676,0.22399057,1.452783,1.51742,1.1850282,1.253544,1.8142143,0.63452387,0.67816937,0.94259775,0.3492683,1.1021614,1.0450581,0.97087336,1.2973744,1.1159692,1.2946112,0.88881356,0.7493841,1.2554442,-0.26853397,0.28459817,3.2182686,2.7097678,0.31996432,-0.8782995,2.4272063,3.6827872,1.0580046,1.5523366,1.2761607,1.2557594,1.1798332,0.6701271,1.6803827,1.4781021,1.3331348,1.6372861,1.3372462,1.0675243,1.3177059,1.3742648,1.0266389,1.0284272,1.1713234,1.1543791,1.0839655,1.2530757,1.4825343,1.5355208,1.3030819,1.1932435,1.4177506,1.2286955,1.2721832,1.4372756,1.2489483,1.3183141,1.2339212,1.634941,1.0864064,1.3663343,2.4134517,0.8860867,2.1666183,2.3667765,0.5597094,1.3327284,0.9678022,1.3299217,1.2822012,0.25776857,0.99840385,1.8766578,1.4369256,1.5427557,1.4808246,-0.18202925,0.84122574,1.6815581,0.89325416,1.8538549,1.7204193,1.1254103,1.7634934,1.3601198,1.2778908,1.6000586,0.8809618,1.177444,1.4007623,0.8283511,0.92657495,1.0631448,1.4701701,1.4250557,1.0095066,1.2529521,1.4460626,1.4488821,0.7867362,0.6107119,1.4245545,1.1665927,1.2624642,1.5211414,0.2552264,0.8381639,2.0507393,1.0891027,1.0248475,1.4977424,0.9029369,1.338953,1.2017511,0.94713765,0.9749054,-0.105346106,1.5490559,0.23610573,1.0129147,4.1063,-1.030553,-0.100987926,0.88709164,-2.5248747,0.056702685,1.3885487,0.8191233,-1.0021248,-0.5441509,2.805184,0.9001516,0.0858937,0.1992309,-1.2299228,0.6470367,1.4289119,1.3389903,-0.1060898,0.41795582,1.1645571,-0.484168,1.9369832,1.9393102,0.529435,0.97337055,1.7959998,0.9237161,-0.52664244,1.6028283,1.150603,0.5449155,1.3103681,0.84084153,1.0880995,0.9632548,1.2048112,0.9392299,0.97057366,1.0354232,0.4503516,1.511316,1.045171,0.8058731,1.0594139,0.94611734,1.2185327,0.21355355,3.6489825,1.3444698,-3.2262313,3.1438065,2.820369,-0.27348158,1.2679907,0.5396102,1.0096347,0.80803365,0.715689,0.7693631,1.043923,1.4413066,-0.5857497,0.10994799,0.9069471,-0.1887574,0.4570706,0.40648785,0.36777022,0.7021263,-0.054248046,0.22261664,0.99738944,0.5516323,0.2852172,0.33616692,1.0178963,1.3198676,0.067033,0.3512399,1.550264,1.5395045,0.96967614,1.6462146,1.4437577,-0.5102769,1.1721667,1.8759251,-0.24190632,-0.6498851,-1.0358475,-0.94198084,-0.91586685,-1.7618265,-0.74330413,-0.5359645,-0.16279407,1.7238684,-0.98113215,-1.3177767,1.9731883,1.1140294,-0.0134379985,-1.3702617,1.0859336,3.4537022,0.6238979,0.5490379,0.85077655,0.53768265,1.0304648,1.2353228,1.3215637,0.9681797,1.2433922,1.0604607,1.001353,0.8858475,0.23312229,0.8862957,1.0313754,1.1262931,1.0426393,0.50605524,1.3272995,0.87547886,0.4714928,1.17785,0.9946884,1.1891702,1.1042442,0.92892015,0.89299196,0.8903456,1.3151462,0.7680832,0.40580955,0.48372427,0.83504903,0.9712511,0.70195806,1.855665,1.5423486,1.2632471,1.6007816,1.2473857,2.0724826,-0.040673036,0.72856665,2.3826823,1.6258495,4.9274487,1.9232196,-1.2611907,0.6351767,0.088843755,0.9474733,0.9153306,0.18413404,1.0371772,1.3582697,1.8634894,1.8558441,1.1278989,2.3295565,1.0202726,-1.470225,0.9718766,1.2734208,0.70073634,1.4478269,2.2832215,2.4200602,-0.074186474,0.95944715,0.6516954,-1.0082657,0.026981678,-2.12135,-0.3351319,2.0432749,-1.6029234,-0.90577877,0.25607598,-0.5646868,0.12651102,-0.41595882,0.015339441,0.20021419,-1.5394567,-0.7267294,-0.17924656,-1.5850854,-0.16861953,0.40570876,-0.49288863,0.38741803,0.016646449,0.91159517,-0.1422154,-0.90833443,6.167023,4.412243
1.1655226,1.5721083,0.67729867,1.2776128,1.0410585,-0.77940106,0.34067595,1.5033953,0.9138338,1.6407748,1.345602,2.0418572,1.645645,0.5557968,1.1516157,0.8672051,1.0989672,1.0620807,0.81769514,1.3801641,1.1681093,0.9317979,1.2617223,1.3102208,0.7545429,0.81823933,1.2072992,1.0954365,1.3687856,1.1379906,0.8620164,0.9861545,1.8472818,2.2909062,0.43573493,2.7793663,2.497788,-1.1084453,1.3561523,0.06679024,1.7690892,3.165001,-1.1745167,1.2061948,1.9159954,0.5560633,1.2656672,1.3478076,1.1602844,0.39516088,0.78230155,0.94080335,0.10875735,0.10368779,0.35857993,0.40944168,0.512788,0.07744439,-0.26134145,0.60488707,0.8667486,0.68943954,1.2684455,0.53058916,0.43878496,1.1325469,0.72316706,0.86535066,0.9190638,1.0509814,0.9095022,0.69144815,0.8865899,0.88040096,1.0240852,0.9809253,1.1036595,0.9179629,1.0488858,0.55781364,1.3659886,1.3721954,-1.9915346,0.70217144,1.752285,0.7947198,2.2989495,0.44762838,2.0558603,-0.54137015,-0.4614201,2.374976,0.27436462,3.9297056,1.804326,-0.36708978,0.18254298,4.7421684,4.462647,-1.0268567,7.015368,9.313234,2.7813752,-5.1663575,0.39435324,1.7417102,-4.630871,3.6394122,1.0857226,-0.40731344,2.1404636,-0.3296287,1.6404159,0.8161511,1.0221303,1.3288077,0.49382365,1.2435874,0.8085805,0.5927973,0.46158388,0.81560063,0.24504595,-0.92949593,0.48800576,1.4791416,0.44661316,1.073771,2.2029445,-0.41573918,0.9071009,2.481352,-2.360346,0.12218989,1.7334454,-1.4671247,0.6252176,-0.4737257,-0.23954812,3.9184225,-0.36482885,-3.4415681,-1.0932593,-1.0370656,-0.4369384,-0.68303645,-0.6700861,1.5226566,1.1135808,-0.5888505,-0.27714944,-0.21339476,-0.5949806,0.5234151,0.89775556,0.17776982,0.38620725,-0.08648456,-0.72421366,0.30380344,0.79801667,0.34465337,0.76254827,0.20950617,0.2362005,1.2141517,0.7178696,0.7794917,0.63430667,0.8566746,1.5844935,0.8451022,0.8381981,0.9991304,0.92577,1.2617657,0.6064565,1.0073943,1.4899216,0.88368565,1.1078668,0.8625084,0.50534195,0.2044116,0.765497,1.3341801,1.0754293,1.483716,0.3083021,1.6055017,2.3033302,0.53783536,2.1253514,0.5983985,-0.839205,-1.0436383,-0.64818215,2.4305983,0.93328977,-0.18587366,1.7625351,0.6398649,-1.0841132,0.009759137,1.399369,0.6585344,0.67397046,2.1979077,1.1181991,-0.1572895,0.29031166,0.41100484,0.23358925,0.52603513,1.0969406,0.44519982,0.70473015,1.3233765,0.6444968,1.6726248,1.7405099,-1.1410726,-0.8582924,1.6171666,1.8930112,1.2394793,0.93412185,2.1822588,2.2916293,0.8681825,-0.15519266,-0.3078087,0.7659786,0.019858759,0.56442595,1.52496,1.086738,1.540913,0.25200018,1.4367968,1.9417247,-0.18020809,1.6597388,1.4704585,0.5188497,1.3296143,0.9479714,1.2006401,0.87232554,1.0035065,1.43677,0.88874155,1.157143,0.7833306,0.95114726,1.2528957,0.7554364,1.7984647,0.15288037,-0.96262467,1.2256707,1.2906551,1.3209386,1.4702188,1.3044164,1.3574966,0.9453125,0.77968997,0.8106896,1.4124832,1.8528075,1.491011,0.93129325,1.0463332,1.2686877,1.6339531,1.4818033,0.7858702,1.2265652,1.0019217,0.50467575,0.39925063,1.2021792,1.3141164,0.53729016,1.0463628,0.11288616,0.488106,1.131928,1.5734705,0.6999053,0.11766592,4.7201586,2.677863,-0.82315683,-1.5539464,1.9499081,5.482746,-1.0314436,-0.12987216,2.0014946,0.18049678,1.4563165,1.0792844,-0.9677903,-0.66606444,1.3839344,1.030953,1.4102722,1.3654125,1.2488875,1.8947319,0.96699667,1.0448328,1.0364687,0.81444025,0.90082616,1.0141475,1.2383054,0.8647648,1.016603,0.8476351,0.98196006,0.7182832,-0.11715679,0.34036508,0.10413719,0.06707723,0.3205518,0.78032076,0.48370865,-0.09417785,1.1795368,0.54817855,0.2570631,0.7050394,-0.50317633,0.093402594,1.2922775,0.16922687,-1.2400681,-0.7554736,1.9439341,3.9300275,1.409165,-1.4422535,-1.1482271,-1.5266912,-1.5426121,-0.92868704,-1.2326193,-0.24761672,0.1861766,-0.25717473,-0.13472937,0.5006678,0.575961,0.013636536,0.06877059,0.1237249,0.91865677,1.1346797,1.2601633,1.7924143,-0.78458536,-0.8857717,0.8349774,0.38297424,0.59423655,-0.21605262,-0.578147,0.066043176,0.3669853,0.8420403,1.3223406,0.9356687,1.3588359,1.117535,0.68685734,1.7488956,-1.098436,-0.50307965,1.480095,0.2718329,1.2329916,0.803305,1.5579647,0.90440136,1.2844458,1.1446214,1.8604109,6.360279,-1.1063151,-0.24407484,2.435788,-3.1026003,3.3767424,-0.1773386,-3.8663454,0.12597746,-1.3601079,1.2398708,1.0531791,-0.3461031,0.44650674,0.14011168,0.34665766,0.5053027,1.0674158,0.40441608,0.17537676,0.7869329,0.8709372,0.34665862,0.3564269,0.90359914,0.968652,1.1889467,0.29447323,0.2759246,0.5891231,-0.23831646,0.17438346,0.5929655,0.8603229,0.9829718,0.5841872,0.81529176,1.3026632,1.3960218,1.0837812,1.1128064,1.8225071,0.9923311,1.0548934,1.5522411,-1.4505833,0.093817376,1.2385917,0.3908305,2.3858132,0.287867,1.482084,0.3354324,-2.5154107,0.8327178,0.13255954,-0.12373982,0.30588493,0.45518634,1.1896652,0.23751734,1.5668085,-0.10569885,-1.1692072,1.0917553,0.81400156,1.2976434,1.0721066,0.25541508,1.0846986,0.86171454,0.35198173,0.8911223,0.13713993,-0.37893072,-0.37522528,-0.2122194,0.62403584,-0.73842144,0.38375646,1.4858956,0.1401163,0.59421283,-0.4891397,-0.5504075,-0.37821996,-0.6421229,0.9564688,0.53049093,-0.18394294,-0.6425014,0.6196619,1.5974389,-0.25387508,-0.16475248,0.02115687,0.19238776,-0.33258086,0.26116413,1.2062005,-0.53476924,1.155618,1.1121408,-0.5692248,0.32666844,-1.0553899,0.96756524,1.8724954,-0.18372597
1.1712432,-1.9189057,0.6029934,0.8956328,0.659637,0.9532485,0.15077513,1.721678,0.39468518,1.6854446,1.8671504,1.4068346,2.1294994,-2.047921,-0.8595307,1.4150242,1.3578887,2.5370405,1.543677,1.2743784,0.57208663,0.5170004,1.8535628,1.6715854,1.7012051,1.7264603,1.0017653,0.69893646,0.49464458,0.46076375,0.95011264,1.243023,1.1219486,0.94868463,0.79747725,0.9240166,0.39823434,0.020996239,1.2278392,0.6746282,1.6652029,2.1341515,-0.41421604,4.3844094,5.6434793,2.4745264,0.58446205,-2.5262039,0.546568,0.932929,0.12502284,0.8969255,0.12221134,0.79807246,0.720351,1.3150718,1.0152197,0.1397107,0.79152894,1.1762761,1.0870235,0.76099443,0.41402385,0.4107298,0.71432126,0.23902579,0.5290076,1.4287906,1.2677441,1.3329145,1.6607109,1.868304,1.6554811,1.4657518,1.7531132,2.000771,1.8164821,1.5625579,1.7812594,1.8589551,1.873039,1.4294996,1.2871567,1.991576,1.5747697,1.0252607,1.2965268,1.4157634,1.4077625,1.5011371,1.3580643,1.0851139,1.9390401,1.4188863,0.84524226,1.688491,0.74659085,1.3726004,1.815857,1.2622617,2.3597045,1.5209217,0.7761279,1.3089656,0.96163714,1.2162325,1.7263974,1.2489918,1.310189,1.2807926,1.4625927,1.9075377,-1.6093704,-1.5655913,2.1665785,1.4856641,1.9491956,1.9464471,1.2629607,1.9733666,0.8934367,0.93732643,1.7090926,1.2937778,1.0304401,1.7306513,1.5541595,0.6715615,0.8323991,0.38243502,0.8263995,1.0563504,0.18742284,0.68726164,0.11767545,0.3956132,1.2080929,0.823333,1.4571882,0.13892041,1.5249188,2.0711052,-2.1612456,-1.1436127,-1.2826198,-0.18266487,2.1326249,0.35283062,0.7774278,0.13196276,0.4850621,1.1744657,0.3211943,1.013257,0.8508446,0.86057264,0.855551,0.55947673,0.9535557,0.7320498,0.95449024,1.1309026,0.75896096,1.0717422,0.9272963,0.4715117,0.42849302,0.40777943,0.9045216,0.86060303,0.40509614,0.67062724,0.7554212,0.9453841,1.0532829,0.65619963,1.000594,1.5037253,0.92005354,0.962533,0.9367756,0.7449223,1.4813514,0.47707984,0.7215218,1.6168809,1.3845744,1.5677981,0.18501589,0.62697744,0.32038715,1.0294492,2.4801478,0.5929194,-0.16273297,-1.7368884,2.7763996,3.7647915,-0.24548091,1.8890166,0.5240063,1.5198488,0.44370642,0.8737928,4.46621,-1.4092171,1.4804761,3.9925005,2.5570614,4.2926755,2.1084223,2.3797867,-2.9616964,-1.3959683,2.7609236,0.10096383,1.6601807,0.32419714,0.39548856,0.7569034,0.088109165,0.8145003,-0.2409494,0.75656694,0.64153844,0.22601132,1.1009835,0.60210246,0.37121552,0.21971889,0.3342683,0.054322965,0.3577784,0.9831325,0.5573669,0.9476914,0.7422718,0.6576871,1.1371901,0.50730693,0.8148513,0.4865921,0.84161496,1.1116465,0.87855625,3.1243892,-0.2462375,-2.0148814,1.5384623,1.0128002,1.1903728,1.1544995,0.33139253,0.8802557,0.6757483,0.8212846,0.74056214,0.935194,0.9505435,0.095117785,0.54614276,-0.015820425,0.15072039,1.1245098,0.5978148,1.7863953,0.9439603,0.89630145,1.3380973,-2.0685403,-0.19436891,1.5873737,0.5228465,1.399595,0.86652774,0.9203195,1.1519363,0.9812051,1.0614537,0.91122335,1.3507756,1.6484135,1.9191637,1.7153553,0.7602367,0.48573703,0.8480247,1.2861149,1.2172552,-0.08200622,0.70619667,1.5914046,0.34141812,2.9381719,-1.410763,-6.5774703,1.1624671,1.6836425,-1.0677644,1.3975196,1.0991607,1.1474981,1.1134768,1.1439065,1.2181737,0.9693362,1.4302864,1.3003347,1.4344461,1.2017009,0.8406875,1.0591549,1.0394268,0.9024145,1.0840775,1.13869,0.7411565,1.1784031,0.9669122,1.2209551,1.7955362,0.37392533,0.93262756,1.4366221,0.5735138,0.7272128,0.66583073,0.57379174,0.3668247,0.9583237,0.96811783,0.18308446,1.4988592,1.1109579,-0.11174522,1.5795867,1.1680789,0.53690475,1.7757201,1.3889846,1.5550122,1.1042795,1.3434024,2.4393256,1.8031896,2.1522589,1.9488895,1.659712,1.7549006,1.6868112,-0.51529706,-1.9136561,1.4759356,1.8207246,0.4462793,0.7097348,1.0508381,1.3344871,0.72862387,1.293196,1.4512147,1.1969863,1.767927,1.6315923,2.0494974,1.9570317,1.4908122,1.1850638,0.2670099,0.3854673,0.5961616,0.50942034,0.65817773,0.7979726,1.480869,1.2711092,0.557997,0.99428004,1.9979128,1.9820852,1.3748794,1.2558976,0.9690918,1.6383537,1.7202635,1.1500491,1.3853726,1.0537381,1.4636253,1.1647631,1.5545739,1.3445278,1.2640578,3.6883152,1.0815182,-0.26850507,-1.5606731,-2.2089353,-0.021597259,-3.3715837,-1.0540884,2.039357,0.6624186,2.422507,-2.2279904,-2.5731106,2.5838013,0.7600377,2.5693476,0.029202014,-2.9951563,1.4120486,0.9845578,1.7779164,1.7470299,0.6386655,1.6903026,0.93880993,2.0181653,1.6790258,1.2951938,1.6690108,1.3093297,2.4048235,1.7997508,1.4336689,1.4967059,1.3980383,1.9732432,1.0670407,1.1531562,1.3217777,0.95494753,1.5699579,0.77269405,0.9703695,1.9254273,0.936516,0.96539235,0.95914847,0.6211555,1.4359517,1.2117612,0.90333235,1.1582646,1.5218755,1.3168808,0.565231,0.83391,0.67149675,0.41918683,0.76623297,0.49183384,0.6011026,0.77011865,0.6924152,0.93578494,0.52890986,0.4345064,0.96732503,0.9777942,0.8426676,0.86525923,0.8964503,0.83292365,0.79464793,0.85980016,0.8065165,0.55065185,-0.12102551,0.08437143,1.5464467,1.8387804,1.3706748,1.9327592,1.9046242,1.0649772,1.3320876,1.5069637,1.2776132,1.636849,1.16095,1.2118077,1.5163851,1.2347939,1.5624993,1.0459561,1.2441248,1.2626346,1.3051506,1.9737061,0.6054027,0.91613305,2.4449487,2.818378,0.38556775,-1.4029622,0.0764595,1.5860398,2.9732575
1.3330547,1.7713736,1.1639173,1.4289031,1.5026333,1.1395335,1.3412939,1.3832673,1.0915408,0.93781936,0.885237,1.143742,1.3719912,1.2739272,1.6771984,1.0310601,1.150742,0.8481564,0.35417145,2.857308,2.1371884,0.9171536,2.0674489,1.2816674,1.2871087,1.1790397,0.32912418,1.3017809,1.4964467,1.2648394,1.8161803,1.0092068,0.6601496,1.5588028,1.599206,1.5447772,1.9649849,1.6297407,1.195797,1.3765719,0.7640831,0.9018804,0.7694908,0.047636833,0.37625346,0.40707022,2.6439555,0.9289061,-1.8399777,2.3383825,0.7391284,1.7628175,4.067102,-2.2661967,-0.2970593,1.8184147,0.07243742,0.92501926,0.5703083,1.0716188,0.8179929,0.7447602,0.9877284,0.86979693,1.0473238,0.4683697,0.7081116,0.8633514,0.6061703,1.020046,1.0506264,0.78731894,0.8206058,0.74350834,0.9081685,0.8668185,0.7643866,1.1439395,0.81289256,0.89203405,1.1109442,0.75974953,1.0608634,1.0397394,0.9024009,0.80351835,0.67285186,0.98859304,1.0439178,1.0923488,1.0907207,1.2807685,1.4123216,0.70461124,0.78649527,1.5113595,0.976446,1.7851379,3.147033,0.64521456,-0.64051604,0.21820195,-0.70634687,-0.08671203,1.080968,0.20220669,0.43512604,0.7660765,0.50101453,1.0572747,0.8995086,0.44634458,0.9546711,1.1869181,-0.85301894,-0.6470982,1.817849,0.6810337,0.1949868,1.6485125,0.93427145,1.525762,1.7550364,-0.4607283,-0.58338475,0.07402293,0.6448548,0.94657665,0.7470771,1.0048094,1.1966605,1.1921668,1.0436736,1.2169319,1.0888716,1.3210324,1.1476047,1.1310452,0.9817156,-1.3136082,-0.09079453,1.7415437,0.805834,1.2680024,1.0561409,0.77032214,1.4774368,0.9656135,1.5378447,1.8975469,1.5379807,3.0349379,1.7266036,0.5229953,1.511725,0.8942693,0.7361563,1.3294505,1.5561765,1.2551987,1.0343726,1.2429028,0.82067233,0.762901,1.3169825,1.321062,1.2794411,1.0082446,0.6216182,0.82894546,1.4031484,1.0599242,0.13602862,1.3901652,2.1169415,0.9247999,1.5051992,1.0998757,-0.3320859,1.3475044,1.0735905,-1.5074552,0.32894605,1.4903084,0.062358808,1.9364064,2.396777,0.5995573,1.172572,0.9480144,-0.10700126,0.84073484,-0.27387086,1.2177778,0.949629,-0.31546077,4.2459345,-3.2324636,-1.600552,7.358543,0.5925496,1.1403471,1.9208096,0.07141838,1.5890111,0.55872446,1.053542,1.2432657,1.6458461,1.3845924,0.9696478,1.4571061,0.9703652,1.4435086,1.2508546,1.0454963,1.6133997,0.53021765,0.45185104,1.0750376,0.6017309,1.2540908,1.6427839,1.3830405,1.6157497,0.92416364,1.494245,1.6998128,-0.9495037,0.116625115,1.521496,0.7616571,1.6143543,1.1284096,1.0125372,1.3252525,1.2314186,1.5770495,1.1087178,1.2695744,1.2283368,1.0675033,1.6649221,0.61893344,0.82450104,1.6271243,1.5020149,2.7314014,0.5192662,0.29306164,4.084886,1.8202573,1.5363724,4.284114,-1.1982052,-2.0080657,1.164958,-0.64649904,0.23311138,0.7713525,0.7493821,1.2502493,0.14570734,0.45344764,0.59259945,0.67446285,0.8552432,0.32583877,0.84620315,0.31320918,0.046134613,0.77660453,0.98428696,0.87706894,0.5135294,0.34896055,0.88621193,1.2307292,-1.430899,-0.39245602,1.5010327,0.07027522,1.3557932,0.9671469,1.094115,1.4929204,0.08193961,0.38928285,0.7700901,1.0057654,0.058688413,-0.11992551,0.5614465,-0.00025417295,-0.16673812,2.1707404,1.9062425,-0.45594254,1.4436799,0.15158169,-0.83551013,0.4609998,-0.27310842,0.14818227,-0.08146158,-0.060283933,0.41675612,0.32752275,0.30477747,0.907305,0.76963615,0.3673663,1.4675848,-0.8995542,-0.81393355,2.0833523,0.86180663,0.9573372,0.67028093,0.57098955,1.8517967,1.3596425,1.702609,1.5470499,1.0911161,1.5988007,0.9272677,0.8079481,1.2238749,1.2083598,1.5315992,1.1953905,1.2820706,1.4220792,1.2825478,0.8934785,0.65030205,1.5186716,0.9888009,1.0026153,0.75318885,1.0441278,1.3328964,-0.41711363,0.8620114,-0.6670276,1.0368979,2.2181668,-3.6759055,-0.29271775,1.7973168,0.5150518,3.7199597,4.342832,-0.3685591,-2.0593808,1.2022874,0.49433863,0.68113464,1.0504521,0.56232965,1.2614958,0.3457789,0.42114523,1.5481367,0.6973492,-0.5666743,0.87560576,1.752931,1.2132891,1.3946998,1.1570123,1.2535923,1.4578413,0.9751788,0.9800021,1.1985333,1.1974515,0.79693407,0.6966508,1.0864857,1.0724338,1.0417614,1.1702292,1.0647112,1.1151513,1.1133356,0.944261,1.6798607,1.2551488,1.197741,1.0992521,0.4263128,1.907752,0.1272254,1.4053367,3.539753,1.1862481,0.29172355,-3.218008,0.22867373,4.8291354,1.7210883,-0.5836279,0.19900504,0.65665287,-2.004063,3.797264,4.271037,-0.10641105,4.1955886,1.6234417,0.46697062,1.5151973,0.40964824,1.8679274,1.0628734,1.0410861,1.3207133,0.9847557,0.7553207,0.14692289,1.2704698,1.3574239,1.0717613,1.5804899,0.9583078,1.0418444,0.65766484,1.1872802,1.4393396,-0.48601946,0.9086321,1.5955522,0.63501954,1.1911349,1.3115007,1.0241891,0.89209867,1.2294574,0.44682795,0.92551047,1.476886,1.2505306,1.6904917,0.49107844,1.8471129,0.46346572,1.4466522,3.1834004,-1.2522737,4.960007,4.9040356,-1.5960562,0.97724634,1.5145001,-0.5183385,-1.242289,1.2139345,2.1055062,0.99552494,0.7600591,3.8050873,2.6364565,-1.5723058,1.4485097,1.3981651,0.4379538,2.295383,0.20596355,2.812138,5.690428,1.2086122,0.7358505,1.2348481,0.5476448,0.89443547,0.29803067,1.3196189,0.8624172,0.95993286,1.4512305,0.4887711,1.680416,0.4010121,1.5830911,0.7243225,-3.060852,2.2244327,1.2451665,1.8250372,5.121001,-0.89994544,-0.095909275,0.91341364,-0.04014894,-0.30731446,-1.002773,0.63608533,0.54983777
-2.427936,0.63435644,1.292909,0.11304972,1.3900945,1.1406995,2.0511475,1.2164567,1.6017929,1.7258269,0.7416033,2.4713721,2.5462997,1.7947367,1.129152,1.00495,2.019479,1.1374068,0.11062926,0.48531964,1.3514918,1.0562282,0.51099056,0.7647506,0.8732756,1.1215692,0.37274948,0.33478895,1.8855402,1.6728671,1.0688679,0.58088934,1.8383956,1.4671643,-2.0765355,0.41532904,2.1392927,0.5789975,1.6966377,1.6943458,1.2171656,1.2246606,1.1333176,1.3424661,1.1911625,1.1913394,1.1279236,0.86026555,0.670124,0.68795216,1.6144003,1.7803926,2.238978,1.718045,0.07802065,4.169938,3.2713568,-3.2870972,-2.2482436,0.94934446,1.5260763,1.8841021,1.2096081,1.3856103,2.419073,1.1862723,2.1807373,1.0718695,2.4707937,5.107004,-0.5425867,0.8223506,2.683492,0.9663121,2.416284,1.1939384,1.7463698,2.5498405,2.0348997,2.0810535,1.5864704,2.0127087,1.5292011,1.2142582,1.6893109,1.5425624,1.6401944,1.3688438,1.6965829,1.8777757,1.9517939,1.9921877,1.5726194,1.6206661,0.94616723,2.3901944,1.0836923,-2.2274563,-0.009922146,1.0232276,0.66573524,1.0414181,0.5927141,1.30531,0.15659419,-1.3617709,0.7713359,1.7092004,0.9633228,1.0037416,1.0480185,0.9161289,1.2738886,1.2963401,1.2784762,1.6436198,1.0941074,1.0051415,1.7766417,1.785067,1.2261351,1.4613427,1.6514047,1.4049509,1.5418748,1.20853,1.1713853,1.8946308,1.8646985,1.2209508,1.3997928,1.1778296,1.1543854,1.5486401,0.13013197,0.10964862,0.63389444,0.43093774,0.39262462,0.11409921,1.1471134,1.1033354,1.2419558,1.0272386,-0.21505737,1.6213477,2.1484742,1.7224587,2.1921208,2.3707738,3.5170815,1.6654191,0.10190219,2.406138,2.6219542,1.0737809,0.93679035,1.6184804,2.2028604,1.4444664,0.9288919,1.3879952,2.1738071,2.283895,1.0282243,1.2175894,2.0742395,-0.9241151,-0.90568775,1.8991033,0.76773083,1.5556618,1.415168,1.2423375,1.3502318,-0.47632712,2.8423734,2.6407752,0.3335744,1.5363083,0.9364465,1.2536275,1.5676472,1.439906,1.2202183,1.4533709,1.5852795,0.9422501,1.5455885,1.4047197,1.3444452,1.3187312,1.5844053,1.317501,0.92723125,1.9174942,-0.19456817,0.17499907,2.9618132,5.1969824,4.1287365,-0.2618219,1.991659,1.6562608,-0.479201,1.4650173,1.489146,2.1065893,2.1598587,1.5956755,1.4177405,1.0664954,1.669201,1.6358032,1.7989455,1.8056715,1.6288388,1.826426,1.5213372,1.5486722,1.6561549,1.8334327,1.9275641,1.5450516,1.2842295,1.4748278,2.023103,1.6624516,1.5752664,1.9575671,1.8278728,1.9336803,1.6613288,1.9083642,2.0634131,1.7899604,1.8041431,1.5280882,2.0232484,1.8240902,1.831484,1.7664946,0.8012934,1.031188,0.1812955,1.4509629,1.5870543,0.72306436,2.4699545,-0.17415626,0.54087716,0.73792255,-0.8880875,3.5793195,1.2130868,-2.2684963,1.2132481,1.4293492,0.7293973,1.5157462,1.1872292,0.7973488,1.0209583,0.99002,0.82035637,1.7669964,1.7733334,1.2316529,1.1754323,1.1415921,1.3437667,0.5446112,0.3764792,0.6404126,0.117514044,0.13229853,0.3298461,1.569792,1.2328691,0.50583637,0.8225184,-0.022898253,2.5830028,2.8798993,0.51516455,1.1904919,0.3401553,2.0317504,2.2035966,-1.6292316,1.2473499,1.9718568,0.42373577,2.3501031,0.23778765,2.8473313,3.6181748,-0.88265294,1.9380655,1.1369456,-0.5151097,1.4545121,1.755181,1.4329184,0.26065314,0.95009756,0.8597003,0.4841958,1.1793232,0.9883177,0.7121324,0.79714036,1.2622869,0.6658306,0.9436733,0.36895376,0.9463712,1.6903366,-2.0257306,-0.124745645,2.4775167,1.1877406,1.7532008,1.2058083,1.0652772,1.3759179,1.2960035,1.3669767,1.0526677,1.1083938,1.4456522,1.5266639,1.2492822,1.192444,1.2518356,1.0830392,1.1289809,1.2961667,0.8389857,1.4386373,1.2739965,1.1110996,1.9285554,0.94357425,1.6251531,0.8243912,1.1602472,0.7977621,-0.2654144,8.121697,6.711433,-1.0480106,1.3044883,2.8330867,2.0242474,1.2387983,-1.2267939,-1.2020065,0.91814774,2.451775,5.302779,7.1236763,4.0782743,-3.6474202,-1.2956979,5.594717,2.5329442,0.98029155,1.2288678,0.956547,2.0198877,1.3032203,0.053081788,0.13453399,1.2544451,0.24326201,0.5194041,1.6244322,0.23115832,-0.093094796,0.29398388,0.39452514,0.4596763,1.5766455,0.37787765,-1.7586535,0.68358153,1.731985,0.9330882,1.5729005,2.141165,1.7867806,1.3522611,1.0373659,0.098879516,0.46798432,1.2120554,1.5608498,0.90465426,0.90629584,2.6232893,-0.57649803,-1.707637,1.7045987,1.2446702,1.1957214,1.4365395,1.192443,1.4361818,0.9630479,1.3124267,1.1694083,1.0329329,1.2995588,1.0235841,0.97340035,0.74046993,0.9330392,1.1422759,0.98188144,1.1321918,1.3114908,1.5099782,1.0924118,0.9469981,1.2201176,0.8998843,1.242197,1.0317194,0.7576409,1.6990703,1.1303533,0.82598823,1.4346161,1.2477434,1.4083512,1.1011682,0.64870155,0.64307594,0.71407765,2.1099622,2.3671188,0.68260384,1.9373217,2.5397427,1.3026638,1.7829685,-0.36633235,0.33107907,2.1997113,0.14452572,0.45688757,1.0858603,3.208017,0.6007513,-1.5594233,2.7866602,2.1167028,0.7764729,-1.2696003,-0.7961817,1.9547241,0.85186243,1.2760998,1.2383926,1.2010689,1.5604708,1.0428395,1.2251383,1.2149407,1.326649,1.0262176,1.3473953,1.3422889,0.81711763,1.4165906,1.668862,1.1742015,0.8946378,1.3260618,0.97604257,0.7940655,1.3844756,1.1964296,0.7117406,1.2402188,1.4082643,0.79889536,2.4223115,1.131575,-0.73673576,1.0274919,0.6610512,1.025717,1.6926364,0.96674716,1.2582797,2.263999,2.0452619,0.6894588
1.4369256,1.5427557,1.4808246,-0.18202925,0.84122574,1.6815581,0.89325416,1.8538549,1.7204193,1.1254103,1.7634934,1.3601198,1.2778908,1.6000586,0.8809618,1.177444,1.4007623,0.8283511,0.92657495,1.0631448,1.4701701,1.4250557,1.0095066,1.2529521,1.4460626,1.4488821,0.7867362,0.6107119,1.4245545,1.1665927,1.2624642,1.5211414,0.2552264,0.8381639,2.0507393,1.0891027,1.0248475,1.4977424,0.9029369,1.338953,1.2017511,0.94713765,0.9749054,-0.105346106,1.5490559,0.23610573,1.0129147,4.1063,-1.030553,-0.100987926,0.88709164,-2.5248747,0.056702685,1.3885487,0.8191233,-1.0021248,-0.5441509,2.805184,0.9001516,0.0858937,0.1992309,-1.2299228,0.6470367,1.4289119,1.3389903,-0.1060898,0.41795582,1.1645571,-0.484168,1.9369832,1.9393102,0.529435,0.97337055,1.7959998,0.9237161,-0.52664244,1.6028283,1.150603,0.5449155,1.3103681,0.84084153,1.0880995,0.9632548,1.2048112,0.9392299,0.97057366,1.0354232,0.4503516,1.511316,1.045171,0.8058731,1.0594139,0.94611734,1.2185327,0.21355355,3.6489825,1.3444698,-3.2262313,3.1438065,2.820369,-0.27348158,1.2679907,0.5396102,1.0096347,0.80803365,0.715689,0.7693631,1.043923,1.4413066,-0.5857497,0.10994799,0.9069471,-0.1887574,0.4570706,0.40648785,0.36777022,0.7021263,-0.054248046,0.22261664,0.99738944,0.5516323,0.2852172,0.33616692,1.0178963,1.3198676,0.067033,0.3512399,1.550264,1.5395045,0.96967614,1.6462146,1.4437577,-0.5102769,1.1721667,1.8759251,-0.24190632,-0.6498851,-1.0358475,-0.94198084,-0.91586685,-1.7618265,-0.74330413,-0.5359645,-0.16279407,1.7238684,-0.98113215,-1.3177767,1.9731883,1.1140294,-0.0134379985,-1.3702617,1.0859336,3.4537022,0.6238979,0.5490379,0.85077655,0.53768265,1.0304648,1.2353228,1.3215637,0.9681797,1.2433922,1.0604607,1.001353,0.8858475,0.23312229,0.8862957,1.0313754,1.1262931,1.0426393,0.50605524,1.3272995,0.87547886,0.4714928,1.17785,0.9946884,1.1891702,1.1042442,0.92892015,0.89299196,0.8903456,1.3151462,0.7680832,0.40580955,0.48372427,0.83504903,0.9712511,0.70195806,1.855665,1.5423486,1.2632471,1.6007816,1.2473857,2.0724826,-0.040673036,0.72856665,2.3826823,1.6258495,4.9274487,1.9232196,-1.2611907,0.6351767,0.088843755,0.9474733,0.9153306,0.18413404,1.0371772,1.3582697,1.8634894,1.8558441,1.1278989,2.3295565,1.0202726,-1.470225,0.9718766,1.2734208,0.70073634,1.4478269,2.2832215,2.4200602,-0.074186474,0.95944715,0.6516954,-1.0082657,0.026981678,-2.12135,-0.3351319,2.0432749,-1.6029234,-0.90577877,0.25607598,-0.5646868,0.12651102,-0.41595882,0.015339441,0.20021419,-1.5394567,-0.7267294,-0.17924656,-1.5850854,-0.16861953,0.40570876,-0.49288863,0.38741803,0.016646449,0.91159517,-0.1422154,-0.90833443,6.167023,4.412243,-0.804046,0.57714784,-0.55808103,0.25633532,-0.585424,-0.21943216,4.7847905,0.7020224,-0.29361796,7.5961204,3.1283092,0.82865673,4.992927,0.6633002,1.6335768,2.1628861,-1.7956836,-0.19813772,0.17060995,0.26380685,1.3446367,-0.020471413,0.4927061,0.49894083,0.8950357,2.0462797,-0.65770054,0.059425157,2.0375898,-0.23706852,0.10365464,0.9356301,-0.2618213,0.4619451,0.63323253,0.86147577,1.377397,0.7724433,1.2426383,-1.0805404,-1.7588645,0.6725929,0.19399892,0.8194051,1.1415927,1.3799897,1.313643,-0.84480155,0.70290864,1.8402973,0.680255,0.93613446,1.109133,0.79021883,0.79501325,-1.0699894,0.3207513,3.0875304,-0.820307,-0.13298672,1.5457681,0.2831031,1.046588,0.33153594,0.90494853,0.70418835,0.7070973,0.662994,-0.54152554,1.1141261,0.7976397,-0.24511664,-0.021548614,-0.13756754,0.21755087,0.41206485,0.73053503,-0.031316463,0.26365566,0.8097114,0.42472133,0.70718026,0.57745045,1.1925331,1.0645736,0.4424682,0.3638969,0.017952055,0.7906632,0.105139896,0.4427213,1.5766313,1.223799,1.9988711,0.5118584,1.7285817,1.6010219,0.79406136,2.503266,-3.6368525,-2.6081455,0.3880521,-1.2293998,1.9746355,0.88731337,0.71019423,1.4662995,0.091897115,0.66025937,0.7226227,0.72157043,0.56554526,0.7191936,0.9607695,0.5994688,0.7823682,0.7464774,0.60274774,1.1343081,1.1303489,0.16281877,0.39906344,0.9661838,0.4763756,0.88524014,0.70578414,0.35463738,0.83286804,0.343584,1.0224862,0.95040905,0.20933104,0.9116213,0.43013254,1.2204325,1.0736401,-0.10660389,0.73825914,-0.012116593,1.1178203,0.9832427,0.39306265,1.1785951,-0.41899577,2.0093524,-1.2393363,-0.35332218,5.8130074,-0.4414609,-2.0057967,-2.151778,-2.3532264,0.056412414,0.5880943,2.5822878,0.43633145,-0.14159499,0.5028727,-0.19171923,0.46888465,0.4043042,0.25401863,0.5391728,0.86748886,0.81257826,1.5762732,1.3009851,1.7526019,1.8120811,1.4530565,2.298086,-0.804758,-0.3391412,1.7825266,0.5704049,1.1841489,0.68951577,0.7815135,1.0128672,0.94867957,1.5831351,0.15445572,0.48617795,1.7660921,1.6655505,0.31170332,-0.509648,0.4931054,-0.022704955,0.1294705,1.1244873,1.1298462,1.0577564,1.4559666,0.871365,0.38750193,1.0148273,1.198569,2.9950435,0.038416486,-1.1987,2.883228,1.6244577,1.3927095,0.41422465,-1.4440411,-0.7756367,-0.34945437,0.19190477,0.008192338,0.69418097,-0.15282613,-0.27804127,0.5255583,-0.7316922,-0.11982794,0.764198,0.3317016,-0.3265054,0.2678604,0.7375789,0.54916865,-0.0030510789,-0.0727286,0.40030432,-1.1096756,-1.0713686,0.03230467,0.059248827,-0.14785185,-0.8758308,0.7487493,0.36129573,-1.4867009,-0.40350378,-1.9787053,0.537903,0.5128346,-4.9433546,-0.80085355,0.9238832,-0.32715505,0.92546934,-0.038882457,0.8876135,0.9211927,0.33858117,0.66030097,0.07634309,0.49380866
1.0520898,1.4919841,0.75015223,2.776228,0.05172845,-1.5397878,6.058556,4.3773713,0.46693692,2.32664,-1.8234909,-1.4606261,2.9144049,0.98105854,0.979801,0.32696986,-0.559714,0.16221504,-0.21139027,1.8789619,2.8324685,2.342709,2.5142303,1.2624646,-0.9748072,-0.028265039,0.8395434,0.07534507,0.95664084,0.39857984,0.12847418,0.49591523,0.10186806,-0.0448362,0.122461334,1.288579,1.007904,0.030766154,0.45104542,-0.03929705,-0.4211488,0.4726804,0.11454137,0.18901296,0.7450305,-0.07753148,0.17897892,-0.0381969,-0.25961164,0.9448784,1.0206844,1.2047414,1.0486786,0.12744205,0.8515956,-0.3816543,-2.1488023,0.8079848,0.5032955,-0.036605496,3.3562047,1.5682247,0.48427656,1.669414,1.1509502,1.6224831,1.1768343,0.43556392,1.0290611,1.1202183,0.7693499,1.4137864,1.3369608,0.6844015,0.69871014,0.7784246,1.554799,1.4417622,0.6978707,0.8899371,1.1611699,1.0053456,0.87477446,1.0076795,1.0007654,1.1448544,1.0780051,0.97541165,1.2826468,1.2935501,1.095402,1.2014339,1.3279518,1.1022441,1.0485218,0.80134827,0.55861115,0.8799529,0.34704268,-0.0074086497,0.4900626,0.91760933,0.7566572,0.95977455,0.56487036,-2.0561705,-2.097407,-1.0502884,1.4547437,5.254788,3.038411,0.6303397,0.06832238,-1.3517559,-1.1284385,-0.3008837,0.15871638,0.7191827,0.88509655,1.3080788,1.4421669,0.076826945,0.93823445,-0.24621128,-1.3341626,2.055432,1.5645475,0.5866179,1.1298393,1.0037881,1.6017392,1.1354845,0.7132,0.92307836,1.2510939,1.0065134,0.7471085,1.1170716,0.27128237,-0.52237815,-0.5106939,-0.64178264,0.13027403,0.9269804,-0.11265682,-0.8612215,0.24128564,0.30710453,0.0641887,-0.47985244,-0.69690937,0.21314102,0.16981487,3.0621157,0.010950706,-3.3498223,1.9219148,0.8082245,-0.22395149,0.9942304,-0.31232393,0.449174,0.3049266,0.13072057,0.01419027,-0.6636084,0.38526696,0.58713025,0.6830562,1.4087769,0.9378613,1.366824,1.1535442,0.7541774,1.520091,1.6322763,1.809321,1.0433748,1.198862,0.304905,-0.56104666,1.2551193,1.2194211,2.0558896,1.3323514,0.20512033,1.0355105,0.84312063,1.8365018,0.86577576,0.5640001,1.7710339,0.10126249,-0.75696415,-0.5565595,0.07212778,0.93327963,0.6569709,1.0630745,0.7196917,0.62426066,1.8455586,0.14345038,0.67344,2.1122587,0.98910654,6.1821237,6.429988,-2.6073692,-2.103923,4.6234007,2.9433799,0.39121163,1.482931,1.0651203,0.83673286,1.2746861,1.3987657,0.984727,0.8812369,0.84169555,0.7341148,1.2913285,1.6545739,1.4354916,1.2363327,1.4616822,1.0163064,0.730769,1.2963094,0.90734404,0.8959443,1.7038504,1.494285,1.0781208,1.3677151,1.2884703,1.2272307,1.4524361,1.0024003,1.4527017,-0.34809062,-1.4588559,2.2803488,0.7276046,0.1941469,2.9719732,0.97637284,1.1798072,0.07068008,-0.6048455,0.5565381,-0.6197403,1.8260328,1.8120676,1.3053803,-0.10495212,-6.284359,-2.0477538,3.2449384,0.9901156,0.9782305,1.3202726,0.58712727,0.3866958,0.95859164,0.25915882,-0.506582,0.80301046,1.1909385,1.724096,2.598146,1.7226735,0.9862604,0.50566494,-0.34077874,0.6438745,0.5741903,0.24051248,1.5668329,0.8370811,1.6246469,0.43045366,-1.5297282,0.18060185,-0.14934391,1.1420408,1.4033177,-0.07173574,-0.15969856,-0.7526681,-0.37266997,-0.8593158,1.3772126,1.7170885,-0.87906003,0.88712573,1.3014334,-0.33514187,-0.72259355,0.5835913,-0.40640876,0.18523698,0.9408906,-0.9728728,2.5549912,-0.9284062,-5.877858,0.31559747,4.2546577,0.94244576,-0.76557595,1.832991,1.4224675,0.8322346,1.5941355,1.0207926,1.2695012,1.3803185,1.4164699,1.2873807,1.3054632,1.2729347,0.836589,1.409753,0.3299012,0.30180785,0.57584774,-0.028886167,1.9051279,1.5794748,0.8883893,1.2097945,0.9669866,1.4819384,0.8573483,1.3353955,1.282529,0.5113198,1.2484543,0.7251337,0.9835674,1.3143252,1.2493218,1.3406148,0.7705411,1.1020559,1.2719581,1.4135813,0.12807983,-0.1749848,1.1463829,0.88842463,1.618424,1.2334563,0.94871163,2.2411122,1.741085,1.2708586,1.1178329,0.9003718,0.73509234,0.82809234,1.1920094,0.90772855,1.0377738,1.0201031,1.0160563,1.056996,0.97963893,1.2630861,0.8862164,1.1600804,1.2156463,0.8670695,1.0935396,0.36700898,0.7853375,1.2271705,0.69054854,1.2838256,1.0761485,1.1250982,1.5026813,0.3245737,0.4254357,1.1323863,1.0917269,1.3008578,1.2822658,0.20819104,-0.61383766,0.4546455,-0.029007306,-0.6039852,-0.25301245,-1.0412729,1.9855776,2.1010432,-1.0723422,1.9801321,-1.5719495,-3.042272,4.709311,0.19821669,-2.2629397,1.6943202,0.62694955,2.2481012,0.2585188,0.58043045,4.0252705,0.87068045,0.17498575,0.7922469,0.33455878,1.0358797,0.29273945,0.3915083,0.59958506,0.5336096,0.6878693,0.16282623,0.2800838,0.16381505,0.5681329,1.5207204,1.2321942,0.8923672,1.3966293,1.4584448,0.89952326,1.5256444,1.1918485,1.1551254,1.5975897,-0.7458723,0.08804633,1.6452131,0.86458844,1.2566471,0.9817819,1.0407437,1.1245562,0.8012812,1.4577506,1.1927449,1.0477775,1.2442477,0.89669335,1.6030287,1.0398405,1.5390942,1.2188706,1.4971793,6.6205354,3.9052098,1.7844242,3.0770102,0.045685206,1.3740549,0.96950716,0.82685524,1.9136357,0.8085595,3.1138735,-1.0801458,-3.0686314,2.2409554,0.08879395,-0.5187269,0.39110062,0.1340225,1.8436396,0.93617827,1.1785389,1.4140387,0.8382423,2.4562447,2.3690913,0.3564344,-0.33258307,0.6079845,0.21245605,-0.46055633,1.3955226,0.014354905,-0.2459448,3.4371796,1.3625659,-0.6485555,1.0163529,0.1411685,-0.6494417,0.39000568,1.6311998,0.13999933,-0.30370888,1.7679769,0.49722686
1.1608921,1.352031,0.9664775,0.58275586,1.2114186,0.5803424,1.0554546,0.080902606,0.3229161,0.77679694,0.37805668,1.5100267,1.0769268,0.6212425,1.1176484,0.8120203,1.3051903,1.3880936,1.0053902,1.1874602,0.69519496,2.2038517,1.4798119,-0.08678765,2.76611,-0.7234844,-1.7801738,2.8170376,0.59830874,0.45697698,1.2101091,-0.045707207,0.070669174,-0.046575524,0.9237631,1.3147191,0.28621623,0.1262808,1.5551993,1.0400527,1.6838886,1.6696302,-2.099504,-0.10888058,2.4515874,2.3035927,1.9539483,0.64018214,1.0179418,0.27119797,0.30637056,1.0172478,0.30829415,0.6404796,0.65830415,0.4635454,0.20402496,0.38938278,0.97230995,0.51414657,0.48998645,0.88605833,0.93377537,0.7448788,0.8463147,0.721386,0.7754092,0.71965176,-0.3731786,0.4029394,0.9251927,0.6885005,0.8578613,-0.112272754,0.7796873,0.89855963,0.44531855,1.0367504,-0.56755525,0.4941232,1.3952065,-0.036142804,1.14025,0.89933014,1.1121219,2.0273645,1.9076318,2.6575866,1.4616388,1.8633366,1.5821364,1.4934394,-0.7026182,-3.7414792,7.2296653,5.9936814,-2.9798882,1.5759046,-1.6087146,-0.6464607,0.374876,-3.020442,1.4848142,1.1638864,0.53358907,0.7682557,0.6300243,1.5920895,0.30446106,1.026067,1.3647906,0.7642926,0.8016375,0.79499614,0.9581156,1.0782796,1.309476,0.6108502,0.02848434,0.17003843,0.94466233,1.6632453,1.1555127,0.47759736,0.40518606,0.6341395,0.554607,0.5573437,0.6557074,0.48350364,0.43024525,0.4088563,0.43870917,0.48093525,0.9488202,1.1371825,0.45257664,0.26085758,0.5524659,0.4042923,0.35472846,0.70269346,1.1071521,1.3194181,0.479848,0.75730044,1.4513524,0.6585624,0.8442645,1.1857482,1.166189,1.0932649,0.9069509,1.001174,0.59470344,0.8573747,1.1255156,0.5019691,1.3529308,1.9546194,1.3686495,1.8369521,1.8699365,1.5400437,1.5935801,1.4146847,1.452547,1.4541174,2.0570035,1.4881074,1.0763202,1.5538667,0.5054185,2.2787385,0.91581273,-2.1984346,0.7623333,0.96862465,0.61667866,1.426819,0.62001204,1.1367656,0.67604613,0.2147177,0.77020425,0.7317386,0.68741566,0.76610255,0.7430089,0.3940742,0.7395138,0.5119158,0.40654674,0.32274008,0.5190633,2.5312536,0.26875833,0.026822006,0.0225679,-4.371242,-1.157351,-1.2423582,-2.27581,1.2812588,0.050638013,0.49739513,0.5280603,1.0723555,1.4138106,-0.07351698,0.80163443,0.42372596,-0.03126638,0.2691147,0.22852817,0.37619117,1.0135558,1.1368246,0.1209294,-0.05392462,0.37505147,0.23003632,-0.24933545,0.35083938,0.890693,0.7701831,0.36101353,-0.5346428,0.07360812,1.1419859,1.3291838,0.6096242,0.89082015,1.647842,1.0098537,0.8588462,0.6986469,1.6539918,0.5541544,0.588563,1.0686604,-0.09779817,3.422449,-2.530506,-0.23134902,11.226435,2.8438497,-0.5005407,1.65984,0.11793373,1.7400378,0.7142531,1.6329446,1.2477026,0.572238,1.4092401,0.4117087,1.2217953,1.292648,1.0717875,1.1433489,0.26507422,1.1100118,1.1328034,0.5544874,1.1569012,1.027345,1.0177715,1.1266718,1.3090594,0.8072678,0.36531743,1.4633837,1.5992179,1.3710757,1.4339075,1.3623871,1.5229014,1.1977885,1.3549306,1.5508716,1.4596194,1.5049388,1.262092,1.613843,1.3227774,1.171366,1.7973781,1.1315036,1.5665725,1.5755361,1.1227429,1.5502665,1.0390866,2.5289114,0.8842812,-1.1825393,1.1002872,0.96224713,1.078473,0.99286664,0.8898094,1.3741672,0.68191093,0.97889924,0.78405625,0.7956973,0.25558403,0.045881294,0.3847976,0.17005469,1.3718262,0.40849876,1.9600537,1.4840729,-2.7264926,0.7733868,1.8504612,0.29786417,1.206399,0.9469197,1.230252,0.7760518,0.74168265,1.4037489,0.95329636,0.60672176,0.91925883,0.89266735,0.95084256,0.76444936,1.0855461,1.2053149,0.10393714,1.9537401,-0.19921905,-2.574615,1.2509708,1.0451398,0.6381368,1.2973529,0.8893733,1.3758898,0.52732503,-0.101451024,0.34901822,1.3383136,1.7232035,1.5117179,1.5586302,1.694659,2.0128703,1.7026207,1.7503707,1.8719238,1.4768527,1.6262537,1.7525698,1.7560929,1.6574552,1.4236338,1.5604146,1.4106138,1.2119976,1.6478534,1.5501477,1.5913048,1.7715331,1.1544781,1.3508317,1.3564422,1.3465395,1.5699345,0.8245439,0.94644606,1.2272832,1.4466472,1.670272,1.5253375,1.64338,1.3802063,1.4882241,1.7415535,1.814207,1.7727108,1.6264822,1.6702567,1.5697725,1.5706344,1.4624614,1.6295737,1.0316695,0.70344037,2.0011551,1.6373609,1.0909089,0.70842123,2.1892672,2.308462,-0.022075428,2.2214687,-2.6564665,-2.9269743,4.249915,-0.77587,-3.499775,-1.9884366,-0.61538917,-1.5947567,-0.7839719,1.9768505,0.09200432,-0.75254726,-3.5034208,-0.43262026,1.8265178,0.1457226,1.7965897,1.2740026,0.7030232,1.0180295,1.5322307,1.2409579,2.1854346,0.7868305,-2.057273,0.6708203,1.2115998,0.42564592,0.7791711,0.57396936,1.0244654,1.1637753,1.2642233,1.0116514,1.4162265,1.4616036,1.2580837,1.5003674,0.93109894,1.2995371,1.6142468,1.2314267,1.3606884,0.76696885,0.7520542,1.5125959,1.0897862,1.2053518,1.5123018,1.1247486,1.2764778,0.9636699,0.59789807,0.72113806,0.7365265,1.1532292,1.2150148,1.2797021,1.3026916,1.166439,1.6543401,0.86741376,0.7566951,1.320694,1.1106814,1.5919025,1.3604779,1.2345083,1.3389399,1.2440579,1.4255412,1.0441163,0.55652076,0.39646775,0.88227415,0.8913299,0.3775091,0.35529682,0.3046127,0.6363596,0.8943424,0.45809168,0.012017398,0.8415819,0.8419472,0.5271059,0.9552596,0.1948857,1.6845875,0.39291835,1.1221945,2.532384,-2.685418,2.3251793,4.8123674,0.5796925,-0.66600174,-0.47391906,3.3551855
0.64021355,0.5517127,0.982887,0.3412839,1.0381893,1.113488,-0.5687189,1.4888268,2.105383,0.5940075,0.9916351,0.8549282,0.9276816,0.8184863,0.90470475,0.8860583,0.46496913,0.7715274,0.9598756,0.31857502,-0.12573023,0.69199103,0.7381751,0.6350007,0.885224,0.5373185,0.7811961,0.66411847,0.8436669,0.8868098,-0.031033449,0.19850555,-0.04345894,0.568224,1.5187963,-0.02285219,0.028189365,0.96079016,0.89511454,1.1859368,0.8574077,0.39527693,0.73095894,1.1555971,1.0691168,0.5441246,0.16863327,0.8157682,1.4006028,1.9383348,2.0265558,1.3755157,1.2346046,1.3814936,2.040864,1.6781305,0.6162168,0.53106403,1.1106193,1.5661695,1.8489392,1.9199487,1.2953522,3.7720945,5.6275187,-0.2727384,-2.6719892,1.2993886,1.0935308,-0.027043624,0.81458306,0.6287853,0.3796629,0.3624494,-0.03716432,0.9584823,1.6278578,0.40420517,-0.26486543,0.29457298,0.34367517,0.45299166,0.9840349,0.21821123,0.13930346,0.41927838,0.04482916,0.37636927,0.1812926,-0.20310079,0.15481667,0.09308742,0.24094592,0.29668722,-0.3409272,0.2877934,0.5966889,0.2686498,0.9434088,1.4994653,1.5532824,1.089622,1.2762421,1.3901409,1.0877224,1.211218,0.5075036,0.56028825,0.85814536,1.0219053,1.5826818,1.1871991,1.4158936,1.5019292,1.1354743,1.0180833,1.0539254,1.677164,0.87446547,0.8399237,1.0549484,2.009306,1.3644457,-2.824785,-0.83270824,0.9247666,-0.071594246,1.3854263,0.70411444,0.73177254,1.1170373,0.97278166,1.4268384,0.54144585,0.69915515,0.7595272,0.99538296,1.7308639,1.2112805,1.5663599,1.297955,0.49299625,0.76722777,1.3679762,1.4771174,0.78110754,1.220878,1.5793211,1.5196352,1.5149252,0.92581666,1.6615391,1.407398,1.4201778,1.740846,1.1348373,2.424849,1.1299767,2.0546205,3.5029926,0.6098078,0.7675661,0.5404215,0.7261519,1.5140591,0.65966624,1.7255436,0.928514,0.094744764,0.5550802,0.28851652,1.0517371,0.15546802,0.15971114,1.5444341,1.1365285,0.5762293,0.47461435,0.6256219,0.42508176,1.0713834,1.0747203,0.43316865,1.4789644,1.282509,0.8761043,0.95908123,0.7111798,1.0589532,1.1197832,1.1441369,0.8400856,1.0900227,0.95041263,0.26180452,1.0592724,1.2466725,0.6787967,0.6543681,1.163402,1.4807107,1.7596253,1.4669524,0.985028,2.0439444,1.2114077,1.1991303,1.9907881,0.761009,1.8184476,-0.82995707,-2.398305,1.3752921,1.0009557,0.4973384,0.9828002,0.8533181,0.8057056,0.5427502,1.046661,1.0549997,0.78902113,0.8985565,1.0749345,0.930905,0.7178268,0.76000756,0.89193135,0.8992168,1.0736144,1.1978456,0.7664515,0.955133,1.171341,0.6859653,0.91957515,0.8395774,0.83814377,1.2128781,0.28621712,0.363278,0.9289938,0.88015634,0.715575,0.7492107,1.208968,0.15080227,1.0606562,1.7148902,0.6127082,1.2232665,0.81721455,1.0379196,0.97744036,1.1799386,0.54629993,0.71986306,1.1240525,-4.183289,-1.7290704,-0.15576762,1.2721244,8.356761,2.6549213,0.5765755,2.3448358,0.6469961,2.035474,1.0865704,1.5592872,1.3890828,1.2036253,1.7352946,0.81005746,2.053821,-0.76927954,-1.513971,1.7495016,0.33498085,0.11746909,0.56749576,0.5205536,0.82391596,0.58408487,1.1935117,0.6463147,0.47804672,0.75643635,0.47204962,0.77929264,0.60247105,0.6516655,0.8332168,0.76587415,0.8139374,0.9691469,1.089343,0.7863453,1.0039152,0.93901664,0.7277751,0.95634264,0.7694875,1.2763397,0.8861472,0.47653148,1.2339891,-0.29748368,-0.48405212,1.3652022,1.2893234,1.0714762,1.2067925,1.6676337,1.1810472,1.4090468,1.9725927,-1.0461814,-0.6479863,1.6032217,0.97951066,0.77492106,0.8337602,1.2000725,0.7260681,0.7630662,1.6087259,0.8774836,0.48224685,0.36089423,0.2987557,0.4905993,0.43318176,1.3130496,1.5112263,1.1178792,0.6652428,1.0366492,1.5731859,1.4520453,2.359205,1.9432632,2.3035948,0.59617585,-3.2623694,-0.44542906,1.9012362,1.1024148,1.4023875,0.9030006,1.4652281,0.59810114,0.70874345,1.3129985,-0.17179404,2.8438199,0.09456482,-1.2975765,2.0610805,-1.0436519,-0.41489044,0.5294484,3.191268,3.354108,1.1084785,3.2048197,-1.064527,-1.153997,2.077529,0.46865144,1.0049021,0.8636042,0.9336974,0.7560196,0.15473473,0.93625194,1.080136,1.2347558,0.9517102,0.92155546,0.87354714,0.3131082,0.42820612,0.72895205,1.0072718,0.94226766,0.593205,0.79498017,1.0260895,0.5622587,0.5976761,0.6993075,0.7536262,1.1653458,0.28041577,0.42793134,1.5143985,0.68725437,0.92655426,1.3524464,0.82922804,1.1884958,0.26393923,0.81412035,0.23709096,0.06481178,3.0233777,-2.0065815,-2.789162,2.507848,-1.3356637,-2.5451257,0.7120413,0.82371825,0.4468661,-0.116297774,0.52841324,0.7315597,0.9854596,0.9252409,0.09903667,1.1345356,0.45416412,1.7895353,1.1287135,-2.0849078,1.1431947,1.7666649,1.0085778,2.4968169,1.1404632,-0.32918742,0.43725497,1.4590013,0.62126756,0.33883417,1.2490159,1.3211207,0.8623078,0.93818223,1.3565476,0.6927874,0.44032696,1.0029142,0.8577445,0.7895395,0.6770518,0.5012017,0.737407,0.75990254,0.7800381,0.809821,0.83924115,0.76811606,0.4505843,0.82957745,1.4224141,1.6041411,0.34874868,-0.19918098,1.7343767,1.0987891,1.0742359,1.4073488,0.19444254,3.8130379,1.4724653,-2.3362339,4.1843243,4.7213354,-0.45362076,2.7728689,5.1706944,-1.5636709,-1.335105,1.5336663,-0.4170061,1.3196987,1.4564164,0.5216631,0.78454363,0.75547004,1.1845677,0.72804415,1.0026422,2.185351,2.2758408,1.093598,1.2799643,1.788586,1.7716938,2.7399104,1.0195489,-1.2887292,-0.49287814,1.2282077,1.0663929,1.2934815,1.0300153,-0.60859597
-4.7943764,-4.8029804,-4.8094516,-4.7986073,-4.809291,-4.799568,-4.808573,-4.7996244,-4.8099785,-4.7989187,-4.8077455,-4.805771,-4.795111,-4.824413,-4.7685537,-4.7459965,-4.766459,-4.852309,-4.7524242,-4.7335424,-4.8305883,-4.349113,-4.4673867,-4.9297767,-4.8189387,-4.881847,-4.8644543,-4.8020654,-4.7715163,-4.7010083,-4.9120455,-4.9413114,-4.794335,-4.7985682,-4.8190627,-4.7734404,-4.7236047,-4.805561,-4.8115783,-4.7915845,-4.8200307,-4.7869406,-4.82284,-4.7874017,-4.8201356,-4.8907366,-4.811133,-4.809787,-4.6947284,-4.6726866,-4.6946387,-4.639567,-4.762338,-4.7348847,-4.859462,-4.769782,-4.801913,-5.346459,-4.612404,-3.932737,-4.675514,-5.6347995,-5.6269045,-4.9215565,-4.8238006,-4.7986307,-4.7752366,-4.349036,-4.2242923,-4.846631,-4.814453,-4.7778716,-4.668294,-4.6022773,-4.9127345,-4.8457727,-4.8128366,-4.8184295,-4.7690697,-4.859872,-4.73433,-4.8881264,-4.6760616,-4.1166644,-4.6478453,-4.8800936,-4.74082,-4.8739023,-4.646013,-4.7162976,-4.8113165,-4.867709,-4.977884,-4.7473836,-4.739594,-4.7415237,-4.6584744,-4.8061566,-4.8165193,-4.7198057,-4.773694,-4.8115554,-4.80257,-4.8071375,-4.798223,-4.816385,-4.7890043,-4.8206367,-4.792343,-4.803294,-4.8349586,-4.580175,-4.685263,-4.830839,-4.8156576,-4.89923,-4.7182546,-4.7650943,-4.8348017,-4.778574,-4.8271184,-4.7819285,-4.8290906,-4.760151,-4.7271533,-4.818619,-4.791331,-4.878196,-4.851561,-4.7791996,-4.820644,-4.7947054,-4.8091288,-4.800878,-4.821287,-4.9210706,-4.869,-4.80293,-4.810039,-4.7866096,-4.8590345,-4.867946,-4.797737,-4.7987976,-4.814775,-4.791621,-4.7198596,-4.7897825,-4.819068,-4.788122,-4.8216114,-4.786375,-4.822176,-4.7875166,-4.8245535,-4.9007187,-4.785924,-4.8286886,-4.7655,-4.765656,-4.5976048,-4.241499,-4.760845,-5.23889,-5.1405296,-5.0527186,-4.857741,-4.409108,-4.3626766,-4.872635,-4.7385607,-4.7122264,-4.8808794,-4.7294087,-4.888287,-4.705221,-4.964105,-5.4077773,-4.928173,-4.7246184,-4.718065,-4.693833,-4.8456836,-4.8717456,-4.8056545,-4.8917804,-4.683766,-4.440487,-4.827067,-4.879945,-4.715149,-4.8284354,-4.78872,-4.703946,-4.8176994,-4.767173,-5.0535955,-5.5418234,-4.248458,-4.072502,-6.583084,-6.1272964,-2.9717872,-3.0584655,-6.2276163,-7.1405377,-5.795496,-5.1334934,-4.773704,-5.1506515,-6.1984487,-6.325038,-5.619737,-4.815247,-3.6649609,-2.540265,-1.0753868,1.0833523,1.5372758,0.90839803,1.0288658,1.0730201,1.1048412,1.1427026,1.0601212,1.0381562,1.0790701,0.97755414,0.99139947,1.1234201,0.6957428,0.6506716,0.9873134,0.847345,0.8728631,1.0724239,0.8273915,0.68841684,1.0091774,1.0741024,1.0380545,1.0599202,1.0600657,1.1454096,1.1379088,1.0784228,0.98052055,1.0005856,1.0398082,0.93160826,0.9802706,1.1258489,1.1147592,1.0229733,1.0930694,1.1258917,1.0562053,1.1275064,1.0884356,1.0227382,1.0776036,1.0369394,1.0561389,1.0644965,1.0210876,1.1121957,0.91791475,0.8576281,1.1403016,1.0771765,1.016569,1.0879284,1.1085591,1.0964583,1.0271977,1.0609826,1.0676806,0.96613586,1.0656438,1.1272266,1.0310662,1.0601591,1.0524205,1.04901,1.0600208,1.0429447,1.0648013,1.0377876,1.0717323,1.0214204,0.9672035,1.0647799,1.0443321,1.0615803,1.0441517,1.0560781,1.1448578,1.0014429,0.9935676,1.0821288,1.0400815,1.046209,1.1112574,1.1091206,1.0483835,1.0349474,0.97529197,1.0299194,1.094878,0.97464937,1.0478112,1.1109469,1.0611156,1.1268599,1.0853462,1.0118951,0.9860688,1.034097,1.0714115,1.0372988,1.0627044,1.0495121,1.0490274,1.0636145,1.0362494,1.0738639,1.0325218,0.9854853,1.016891,1.0724976,1.0574667,0.8965254,0.98452765,1.0775453,1.0449318,1.0543635,1.0493704,1.0690908,0.9615282,1.042175,1.0034798,0.8899541,1.1343416,1.1060619,0.979967,1.0168351,1.0062319,0.9974075,1.022601,1.0846912,1.0152146,0.96437114,1.0790746,1.0056638,0.9156235,0.98983145,1.0573652,1.120019,1.1511506,1.1007684,1.0752631,1.0497547,0.9744167,1.1104804,1.0717732,1.0484475,1.1528674,1.0392506,1.099691,1.0276629,1.0454103,1.0394938,1.0668712,1.4164479,1.1257033,0.9741225,1.0966862,1.0674332,1.1845598,1.0775396,1.0757687,1.0138122,1.1203971,1.3807285,1.0955628,1.0086709,1.0932095,1.0252419,1.0077318,0.98018986,0.9616334,0.9703967,1.0518026,1.0676237,1.0330397,1.071486,1.0423337,1.0507883,1.0723952,1.0083356,1.0108024,0.94458514,1.0407748,1.0449076,1.0308784,1.2788917,1.1488817,1.2195834,1.1703757,1.0222286,1.1577923,0.99132735,1.0394101,1.0556345,1.0789375,0.94476926,0.7375984,1.0443934,1.0955461,0.9863413,1.0027694,1.0407511,1.0086648,0.9838746,1.0796975,1.0432675,1.0498277,1.0656822,1.0290307,1.102034,1.1195318,1.0565504,1.0308448,1.1027486,1.1181808,1.0553279,1.0397251,1.0683336,1.1349989,1.0668736,1.040787,1.0641896,1.055618,1.1348886,1.0671061,1.0355705,1.0737145,1.0258322,1.0904986,1.068588,1.011185,1.0523278,1.0590262,1.049468,1.0430173,1.1206999,1.1010741,1.0429237,1.0521895,1.049367,1.1429899,1.2226417,1.097117,0.9075829,0.97687715,1.071789,1.0923847,1.1123023,1.070078,0.9827812,0.8913103,0.9644151,1.0636516,1.0486481,1.0473251,1.0681322,1.0248718,1.1335869,1.1055492,1.0176557,1.1002034,0.97910017,1.1957856,1.0078003,0.63850456,0.9995832,1.0614625,1.3733029,1.3842856,0.9631166,1.1313641,1.1191938,1.0380164,1.0649011,1.0476465,1.00047,0.9846835,1.0883251,0.98573124,0.93558294
-0.22205311,-0.0892259,1.2214994,1.203615,-0.010651227,3.1437054,-0.8524662,-2.351015,1.8404623,-1.6669303,-2.260766,0.65759647,0.68272644,0.8531446,0.47174445,0.17717843,0.74416935,1.1917065,1.0657713,0.9599882,1.0131633,0.9999538,0.747579,0.6595187,1.7157412,1.9255861,0.55272084,0.033725288,0.79555255,1.1182324,0.8955528,0.61213696,0.7017552,1.0677761,0.34615654,0.94869643,1.1436201,0.5892898,1.9300674,-0.1596768,-0.60832566,1.6961333,0.88792115,1.1331156,1.428042,1.3820565,1.4030505,0.76252985,1.7250378,2.3004334,0.52701,0.4460301,1.7901552,0.76338583,0.7542232,1.7327647,0.9562245,0.72398335,0.8653663,0.88541275,1.3029056,1.3367113,1.8485801,0.47198284,-1.4965771,1.4041146,2.0775428,-1.169493,0.6149453,1.7320681,-0.6903968,-0.22564752,-0.09760874,-0.26664725,0.51542634,-0.2015662,0.3689373,1.2667716,0.25120655,0.59613794,1.0194075,0.32345954,0.569154,0.85399747,0.7821665,0.6830374,0.58658767,0.7790696,0.8506065,0.7321315,1.0077544,1.1960286,0.82992357,0.86060387,0.835064,0.8601896,0.70944667,0.50426173,1.1854217,0.7482372,1.2091935,0.87628293,0.36246696,2.5269878,0.99347067,0.90119886,1.8668526,-0.83745205,-0.570425,0.7627621,1.8846265,2.179917,0.97048837,0.9609852,0.8550683,0.98897284,1.2793236,1.5275639,0.8757526,1.2547387,1.4706485,-1.2063165,0.01971815,1.3455756,0.35086405,0.55400574,0.29931512,0.7869791,1.0746115,1.5207455,-0.050423875,0.30914438,2.0324187,-0.7381196,2.8999226,2.6183302,-1.6465634,-0.17168353,-1.5883003,-0.22125438,0.17152661,-0.49256334,-0.5814881,-0.80537444,1.5422642,-0.8478487,-1.671328,0.077514306,-0.83284575,-0.16645609,-0.6417314,0.012849359,1.6203167,-0.32809877,1.0157609,1.0988835,-1.7115335,0.768014,1.418278,0.094726875,1.3490603,1.333819,1.0422293,0.6260189,0.1462205,1.4006552,0.8977999,-0.11205559,0.9279195,1.0962883,0.95570475,1.014543,0.9766849,1.1339202,0.9906533,0.7647838,0.63056123,0.8272445,0.6834616,1.0141288,1.3110498,1.0889891,1.4377506,0.48175624,-0.11017835,0.10764891,0.4363709,1.2482655,0.5600216,0.8869611,1.300099,1.3050171,1.3547182,0.373475,1.0697374,0.055830695,0.8615835,1.6159216,-1.2319722,-0.6526668,-0.45578143,1.1586934,1.6191583,1.1318278,0.2802799,-1.7837937,2.8693168,1.9075336,0.24060702,3.936376,1.1648303,0.49385124,2.1372943,1.0456202,0.7454508,1.3868686,1.3503228,-0.8000664,0.34251255,2.1440308,1.2087057,1.3423097,1.1735482,0.98781186,1.5333979,0.83710533,0.9532024,1.5067166,0.8453132,1.1938361,0.67040527,0.34587267,1.4062124,1.1902361,0.8410203,0.79769844,1.3041643,1.388868,0.83926725,1.0061729,1.096743,0.5733555,0.792995,1.0204669,0.23545909,0.6679713,0.73244077,1.458444,1.2135323,0.4354734,1.6735489,-0.3230927,2.5187933,3.2039902,-2.283884,0.48275504,1.8921055,-0.45761836,-1.1934469,0.3403639,1.414637,0.6654734,1.187255,0.45416188,0.45366246,-0.48694378,-0.5289247,1.0258237,0.38734573,1.2978675,1.5087912,0.75494283,1.2753444,1.533386,1.9547627,1.5843573,1.3259461,1.937029,-0.23214759,-0.6604797,1.3355405,0.6666451,0.7268435,0.7001488,0.9807147,1.2544917,0.03920953,1.0115817,1.3320981,0.59892243,0.84300184,0.69012874,0.68132246,0.3014302,0.93208605,1.3128369,0.8522433,1.3989662,-0.31527823,-0.62744504,1.2467891,1.2510539,1.4872826,-0.45302206,-0.8710567,1.1327013,0.40498775,0.83278334,0.49358281,0.73704946,1.2396472,0.33451027,2.0386646,-0.40839723,-1.5465442,1.6051978,1.1323075,0.83015627,0.8035406,0.5201095,0.52782494,0.9280735,0.39739072,-0.15549038,0.8158166,-0.5301692,-0.20043573,0.3898684,-1.5964085,-0.90996367,-0.1610832,-0.041016836,0.39402068,0.16467659,0.028015306,-0.2013822,-0.35975295,-0.31132665,-0.408167,-0.6129825,-0.35399303,-0.79024434,0.000552307,1.5250089,1.0888236,0.7059074,0.06654603,0.32000044,-1.0680518,-0.81687695,1.91709,-0.27526876,-1.4939247,-1.4647092,0.42707485,2.1207345,-0.76322967,-0.11545422,1.1396989,0.022372764,-0.39696684,0.7140695,1.4120396,-1.1195852,-1.215188,-1.7671822,-1.4413452,1.4000504,-0.16880341,-0.7190682,-0.4641892,-0.46692592,-0.27695915,-0.6882439,-0.089701176,-0.676537,1.0676342,1.7380699,-0.38659647,0.38585323,0.62109625,0.3437897,1.0346582,1.156398,0.93444586,2.2985666,3.1724586,0.9696284,0.6154916,1.5083379,1.0575596,0.69404113,0.66674024,0.8532634,0.70305216,0.5407428,0.85973495,0.7404908,0.5176713,0.7152328,0.9109574,1.0558082,1.0158973,0.7909043,0.124354765,1.0269458,2.3240864,1.4041628,1.2424396,0.69767845,2.4489377,2.0273557,-3.5770855,-0.9553767,-2.3244154,-1.0162847,10.498605,2.2926233,-4.84714,2.084096,0.46576297,-1.2427194,0.17486398,0.32607222,0.046535652,-1.0120656,-0.22195138,0.514986,-0.018051762,-0.3074212,-0.018598696,0.84717155,0.59973484,-0.065306336,-0.17991503,0.21983676,0.7840501,0.47920573,0.42743593,0.7695485,1.0081999,0.62048984,0.5962512,1.2641666,0.57778746,0.4109994,0.46753168,-0.046518628,0.388618,0.48419565,0.4104611,0.6951319,1.1753656,0.4602467,-1.3766718,-0.53354454,1.4651068,1.0413034,1.1247015,1.2988815,-0.8797172,-0.21928929,1.3576473,0.6723181,1.1495924,1.0618538,0.66122174,0.83842194,0.5290124,0.7354781,0.734101,0.80262846,0.88950145,0.47025785,1.1025273,1.1572132,0.5623197,0.64058334,0.40831372,0.9121274,1.2139363,1.1963992,1.4280099,1.2935206,1.4044704,1.3724326,1.4100419,1.1382422,0.9457983,1.258773,1.5321184,1.2757963,1.3202443,1.3811191,0.052875616,1.740738,1.707062,1.135232,3.1202412,0.5001797
1.8773949,1.8343903,1.3899472,1.0903597,1.297026,1.2262999,1.2938902,1.2690479,1.2132351,1.0812122,0.86905605,0.9890983,0.94469213,0.8667863,0.40844318,1.0894666,1.5491284,0.9570341,2.1523795,-0.7839067,-2.3404813,0.8383742,0.36739948,0.27567035,0.8081087,1.0496554,0.37542033,0.1511598,1.7572927,1.3641266,1.8141212,1.111369,0.05556154,0.70503825,-0.04497889,1.0228307,1.0096784,-0.08970162,0.87846047,0.64586353,0.6818478,1.3811003,1.0681129,2.0693247,3.2588692,1.4778911,1.1359111,1.8198415,1.3876251,1.4339644,0.41898206,0.2626567,0.43571633,-0.13610907,0.75202197,0.6070937,0.32524365,1.387714,-0.04726262,0.07470819,1.2212056,0.29789257,1.005223,0.15143612,-0.31882662,0.73257303,0.7957373,0.76245344,-0.69005334,-1.0817084,-0.5049339,0.058005854,0.15023813,-0.8913013,-0.42718008,0.6022502,0.33059114,-0.36807153,-0.41519687,-0.8118623,-0.67068565,1.1040518,0.6033075,-0.036656477,-1.1914116,-0.5268953,2.5771785,-0.10514633,-0.1619277,0.7555426,0.49427584,2.1667848,0.36851993,2.7638733,0.6996956,1.4119883,5.993114,-2.3850062,1.0627928,4.15202,-1.1427789,-0.5520109,-1.3367419,0.9942857,-0.31241685,-1.4330859,0.5996266,-0.47084758,0.49887547,0.6545663,0.98829687,1.4931902,1.362782,2.3403826,1.0676715,2.3499415,2.1314576,-0.32659447,0.82745695,0.21829458,1.8143657,0.9972986,0.18685311,1.9571787,-1.1269065,-0.36656398,-0.80267906,-1.7184893,1.0281142,-0.6745986,-2.1533132,-0.8026464,0.6110931,0.69661987,-0.2302673,1.2495413,1.2120048,-0.21225567,0.7153161,0.4279341,0.46912932,0.38235533,-0.24702977,0.71470267,0.33081168,0.04202888,0.28721878,0.5176126,0.9292687,0.92303234,1.1811231,0.7556856,0.81278235,0.95741755,0.65148354,1.2536515,1.1190143,0.9819177,1.1175913,0.89520496,1.2015359,0.33265606,0.46707997,1.6599169,1.2140672,1.6237195,1.4463414,0.91120076,1.4551914,1.1590952,1.3145705,1.0785222,1.0445708,1.4984353,1.1499026,1.5834063,1.6345445,1.6952583,1.4783494,1.2899177,2.1107507,1.5031859,1.7551394,1.9325671,1.3985773,1.8176291,1.2941909,1.730647,0.0025456133,-1.9602474,-7.2181225e-05,0.47322604,0.19135326,1.5006498,0.5838612,-1.5249459,0.3577044,0.43081635,1.0317564,0.38183987,-2.650501,1.756206,1.8325685,-0.1629105,1.4036756,0.63449055,0.81731117,0.68626684,0.6274414,0.7474676,0.60004765,1.4970949,1.1377288,0.65393484,0.8824635,0.6168995,0.68530756,0.7820521,0.7264328,0.6808536,0.59463286,0.9855305,0.7299347,0.316589,0.756424,0.78392655,0.7844155,0.8053521,0.695692,0.84972495,0.48077166,0.71926576,0.9242012,0.7945767,0.7650079,0.061605897,0.8549285,0.004695861,-0.8809015,1.0174695,0.35332763,0.42335343,1.3752578,1.090503,0.9714428,0.77531624,0.5451449,0.21723142,1.2963555,1.4300476,1.3363185,1.6703067,1.0850174,1.351734,0.86833197,1.1084135,1.6693404,1.2301302,2.351045,0.797697,-0.55902046,1.0026839,0.40028533,1.0067313,0.7555058,0.025958829,0.942252,0.9358843,1.2566086,1.3270962,2.1827087,-0.32383168,2.2229617,4.0541816,-3.7879074,-0.34063283,1.8969796,-1.8736148,0.28726372,0.80645055,1.3569132,0.47995156,0.5706215,0.38092273,-0.27407035,1.3630478,0.3950398,1.503894,1.1050862,0.8431015,0.003549154,0.032320686,1.9109999,-2.935732,2.0454707,1.3350403,-2.1334388,2.6816924,-4.1299644,-2.1224592,1.6156299,0.16928811,1.8955092,0.9131791,1.7619163,0.8933964,0.9206588,1.6495525,1.1131421,1.9791173,1.2049645,0.73482364,0.9457898,0.9369934,1.2615204,1.4272852,0.66952986,0.44596782,1.1303971,0.9645396,0.8029215,0.6538069,0.8719654,0.73336834,0.52745,1.0658996,0.7825114,0.7689893,1.119237,0.9886242,1.2327212,1.0100068,0.3261292,0.857907,1.0950202,1.2502809,1.6361642,0.75073284,0.9499703,1.5511644,1.479542,1.258288,0.8839755,1.504936,1.4749879,0.74383837,0.72139275,1.1212583,1.5856192,1.5560323,1.2738539,1.3329871,1.5164584,1.1532207,1.1979849,1.7537906,1.4514536,1.3263261,1.4808024,1.2433168,1.2423337,0.9818666,1.3219844,1.5883623,0.74201643,1.316094,1.5203475,0.81541973,1.6415727,1.5519897,0.6186914,0.8945009,1.1835192,1.4498847,1.9563061,1.4332469,0.9355437,1.1895683,1.4125963,1.181775,1.2116525,1.4675876,1.1578604,1.2902485,1.0675994,1.4902366,1.0115662,0.13622466,1.1788075,0.33012733,1.6992931,0.58675164,-1.670716,0.050414953,1.1916062,4.4346004,-0.583682,-2.0448492,0.7790747,-1.2171607,1.93235,-0.16421063,1.0381486,3.3245199,-1.2032073,-0.9770763,0.96583074,1.0037996,-0.03151612,0.8608141,0.5850664,-0.046902206,0.42393783,0.6923947,2.5428636,2.7293036,1.2408952,-0.17039171,1.4600494,2.3742106,-0.18432869,-0.5794698,0.07218634,0.3030276,0.091242276,-0.32961178,0.27446967,0.6047632,0.6333113,0.87237674,0.8496711,0.5463322,0.70855343,0.98256826,0.38492897,1.1546935,1.704321,0.751241,1.2537209,1.1194164,1.1207489,1.063344,0.9448758,1.4226571,0.41007265,2.2481751,1.2197888,1.6819988,4.0692058,-1.8536108,1.0082496,3.0013895,-1.366909,3.8505034,3.613219,-3.954769,-7.4825764,-3.0250795,1.5352675,0.19910449,-0.2393511,0.08911691,-1.3337967,-0.5232791,3.0671825,-1.7013627,-2.5783923,2.2089534,-0.3946285,-0.5870597,0.9985049,1.03406,0.26609176,-0.34156817,0.21455444,0.069331385,0.1756866,0.14848848,0.275178,0.34980565,0.2529882,-0.089611836,-0.11951709,0.074862234,-0.22418001,0.8632901,0.6150411,0.39253783,0.69888914,0.286391,1.041727,0.17401728,1.45179,0.429765,-0.23102477,2.3906543,-2.246147,-0.85538214,1.9393356,-0.31511074
