-0.38047242,-0.44408485,-0.49571797,-0.53867424,-0.5757878,-0.61060333,-0.6465858,-0.6838111,-0.71958905,-0.75275177,-0.7849038,-0.81961524,-0.85991776,-0.90676266,-0.95759773,-1.007548,-1.0550057,-1.1017501,-1.1480029,-1.1897348,-1.2236812,-1.2505867,-1.2651846,-1.2469747,-1.1631594,-0.97973716,-0.67553246,-0.25361356,0.2542385,0.7960507,1.3145504,1.7572803,2.088095,2.2969115,2.3923953,2.3917289,2.3172119,2.1859703,2.0025396,1.7663294,1.4856328,1.185464,0.8974044,0.64370954,0.43440807,0.26981673,0.14421168,0.04708244,-0.03536514,-0.1145993,-0.20111746,-0.3022076,-0.41626242,-0.53599614,-0.6536834,-0.7638781,-0.86264485,-0.94918644,-1.0257583,-1.093992,-1.1553423,-1.2113105,-1.2644432,-1.3145682,-1.3517945,-1.3582062,-1.3104172,-1.1795821,-0.9425835,-0.5981137,-0.17027667,0.29231432,0.72362375,1.0673662,1.3015839,1.4319466,1.471527,1.4362094,1.3448977,1.2134871,1.0501207,0.85745853,0.6409205,0.4129749,0.19148733,-0.0077247154,-0.17436379,-0.30248716,-0.39335638,-0.45360002,-0.49135065,-0.51203525,-0.5167489,-0.51081383,-0.50933516,-0.5329416,-0.5963959,-0.6965677,-0.8109735,-0.9099003,-0.9717241,-0.9884861,-0.96545184,-0.9161776,-0.8539071,-0.7900969,-0.73441494,-0.6907606,-0.65759337,-0.6313,-0.60370415,-0.55987096,-0.4805172,-0.3435375,-0.13068222,0.16793637,0.5500225,0.98811054,1.4330152,1.8301641,2.1326582,2.3165042,2.3836951,2.3494368,2.2323802,2.0522206,1.8267078,1.5669348,1.280917,0.9798401,0.6785061,0.39681712,0.15385439,-0.041710094,-0.18790253,-0.28925508,-0.35921562,-0.4127899,-0.4607187,-0.50598824,-0.5480547,-0.58914256,-0.6305668,-0.6698302,-0.7048852,-0.73680407,-0.7669812,-0.79733264,-0.8303433,-0.8675302,-0.9083054,-0.94840103,-0.9843224,-1.0113269,-1.0157931,-0.977327,-0.8716477,-0.6782666,-0.39240238,-0.031270426,0.36667082,0.7526242,1.0807879,1.3177416,1.4489229,1.4803002,1.4347249,1.3360995,1.196697,1.0259054,0.83539665,0.6350411,0.43270603,0.23689629,0.059130963,-0.08905649,-0.20136979,-0.2805132,-0.33450007,-0.3707634,-0.39800406,-0.42479056,-0.45493817,-0.48798397,-0.5232165,-0.561467,-0.60192835,-0.6415115,-0.67692226,-0.70649815,-0.73026246,-0.74812967,-0.7596817,-0.7659842,-0.7727767,-0.78395754,-0.7958164,-0.8038342,-0.8046882,-0.794551,-0.76583743,-0.70271564,-0.5820185,-0.3765207,-0.067699924,0.33774906,0.8016406,1.2643673,1.6666096,1.96359,2.1331418,2.178896,2.1203504,1.9829985,1.7894361,1.5523757,1.2803919,0.98772514,0.6978194,0.43630463,0.21706276,0.03939949,-0.100864805,-0.20631902,-0.28307202,-0.34194306,-0.39372122,-0.44742417,-0.5073072,-0.57269716,-0.6438052,-0.71943384,-0.7949817,-0.86595434,-0.9289382,-0.9823382,-1.0260687,-1.060552,-1.0862169,-1.1009734,-1.0979524,-1.0620173,-0.9712903,-0.80400985,-0.5444629,-0.19417311,0.22263196,0.66524917,1.0867517,1.4430374,1.7001334,1.8451734,1.8851569,1.8362519,1.7167064,1.5428469,1.3314772,1.095434,0.84279555,0.5886447,0.35122573,0.14401372,-0.026696894,-0.1623121,-0.26637647,-0.34604132,-0.41188163,-0.47385183,-0.53923905,-0.6070563,-0.6725151,-0.73535275,-0.796732,-0.8546925,-0.9056851,-0.946403,-0.9730245,-0.9861185,-0.9906625,-0.98700744,-0.97448653,-0.95862037,-0.9456363,-0.9362214,-0.9307734,-0.9331772,-0.94425595,-0.95542663,-0.9471895,-0.89310443,-0.7626535,-0.52475625,-0.16319692,0.30601552,0.8323122,1.3415998,1.7565669,2.0295212,2.1584275,2.1694057,2.095964,1.9686377,1.8053503,1.6104429,1.3872594,1.1433959,0.8896514,0.64255625,0.41944376,0.2318877,0.08336551,-0.031700067,-0.12653206,-0.2160634,-0.30789325,-0.40018126,-0.4880325,-0.5693744,-0.6427028,-0.7027992,-0.7453911,-0.7728427,-0.79271287,-0.8145044,-0.8438531,-0.8791864,-0.9151794,-0.9428233,-0.9490021,-0.91686916,-0.8275691,-0.6648825,-0.4164481,-0.082334734,0.3172586,0.7415365,1.1338774,1.4448463,1.6466177,1.7303029,1.7061627,1.5981029,1.4335086,1.2340244,1.0100406,0.76600814,0.5119585,0.26879355,0.058600232,-0.106181294,-0.22532487,-0.30820337,-0.36715007,-0.41418475,-0.45697653,-0.49810973,-0.54044837,-0.5861994,-0.63615143,-0.6887313,-0.7380059,-0.77784437,-0.8056595,-0.82276464,-0.8312988,-0.83230907,-0.82887346,-0.8252274,-0.8226755,-0.81886154,-0.81168205,-0.8030971,-0.7944172,-0.78088325,-0.74945503,-0.680468,-0.55484754,-0.3541946,-0.06437664,0.30984592,0.7375265,1.1693686,1.5560514,1.8604085,2.0595148,2.1478963,2.1368244,2.0429847,1.8808982,1.6613023,1.3938323,1.09236,0.77625865,0.4679988,0.1866706,-0.056012716,-0.25332674,-0.403638,-0.5117234,-0.58803296,-0.6485647,-0.7083405,-0.7711075,-0.83024615,-0.87676424,-0.9078277,-0.92831177,-0.94088304,-0.945908,-0.9474287,-0.94884306,-0.95042527,-0.9522392,-0.9522356,-0.94109344,-0.903478,-0.8208885,-0.6700628,-0.43402576,-0.11709316,0.26051852,0.66711557,1.0584484,1.3869984,1.615699,1.7321193,1.7469032,1.6827749,1.5635862,1.4040481,1.2118413,0.9932762,0.7596104,0.52984786,0.32244164,0.14730379,0.0021398587,-0.119352125,-0.21815695,-0.29896986,-0.3706511,-0.433259,-0.4824809,-0.5207876,-0.552068,-0.57628596,-0.5947658,-0.609235,-0.6205021,-0.6326481,-0.6495338,-0.67177695,-0.70064014,-0.73684335,-0.77589566,-0.81350577,-0.85098296,-0.88927674,-0.92397094,-0.94238716,-0.92155045,-0.83641374,-0.66783047,-0.4074449,-0.06382012,0.33791554,0.75865144,1.1498051,1.4653633,1.6770573,1.7787541,1.7800155,1.7007632,1.5618291,1.3799754,1.1705111,0.9438661,0.70971566,0.4831284,0.27693623,0.1000712,-0.03922145,-0.14096712,-0.21849816,-0.2893427,-0.3634625,-0.44278285,-0.5270258,-0.61315554,-0.6938526,-0.7628189,-0.8179375,-0.85798025,-0.8811714,-0.88936394,-0.88902533,-0.88435364,-0.8743724,-0.85627544,-0.8220437
1.1754116,0.90728486,0.6278222,0.35002765,0.088651136,-0.1420682,-0.3317587,-0.47361916,-0.5684702,-0.627965,-0.66649276,-0.6925337,-0.71142066,-0.72904384,-0.7472527,-0.76620895,-0.7861424,-0.80514884,-0.8231791,-0.84232706,-0.86334336,-0.88505524,-0.90498215,-0.92097604,-0.9330379,-0.93967545,-0.93011886,-0.88427556,-0.7782265,-0.5901876,-0.3064227,0.07007021,0.5084287,0.9573274,1.3632957,1.6811627,1.8842673,1.9692274,1.9500334,1.8480797,1.685601,1.4808375,1.2448076,0.9845733,0.7085071,0.43032414,0.16903695,-0.057599343,-0.24201688,-0.38693908,-0.49460787,-0.56641024,-0.610242,-0.63857913,-0.6613983,-0.68409985,-0.7106644,-0.7406038,-0.76876825,-0.7923822,-0.8129841,-0.833984,-0.8540752,-0.86876416,-0.8777453,-0.88390774,-0.89115953,-0.8968739,-0.8916813,-0.86726224,-0.81027824,-0.6984924,-0.5088361,-0.22660759,0.14580284,0.5847536,1.0418756,1.451676,1.7609584,1.9437691,1.9982423,1.9445562,1.8134958,1.6311723,1.4158745,1.1830004,0.9393623,0.68449223,0.42640585,0.17938906,-0.045647353,-0.2376799,-0.38838556,-0.49855298,-0.5721806,-0.61555576,-0.63948125,-0.65621316,-0.67622924,-0.69970906,-0.71921325,-0.7339621,-0.74762684,-0.7605607,-0.7751398,-0.79454905,-0.81704557,-0.84061426,-0.8652845,-0.8912186,-0.91856956,-0.9432706,-0.95213735,-0.92338276,-0.82915545,-0.64373064,-0.35393763,0.03443355,0.49264163,0.96947384,1.400415,1.7300099,1.9310797,2.0043733,1.9698697,1.8553336,1.6876341,1.4884255,1.2672409,1.024496,0.76491815,0.501723,0.25055906,0.02560836,-0.16043267,-0.3001635,-0.3941796,-0.4497961,-0.48054183,-0.5022331,-0.5268379,-0.5587325,-0.59525347,-0.6334082,-0.6763794,-0.72775966,-0.782587,-0.8330001,-0.8748732,-0.909052,-0.94017977,-0.96920776,-0.99301565,-1.0114148,-1.0296634,-1.0491027,-1.054694,-1.0205429,-0.9208968,-0.7317452,-0.43906912,-0.05245668,0.38931382,0.8240775,1.179551,1.41713,1.5797603,1.7286233,1.8553919,1.9156612,1.8856206,1.7697699,1.5889368,1.3627877,1.1060143,0.8312805,0.55049706,0.27888542,0.03336675,-0.17559554,-0.34481794,-0.47223496,-0.55977786,-0.6150625,-0.64406914,-0.6536329,-0.6567093,-0.6639537,-0.67882,-0.7014068,-0.72741735,-0.7510429,-0.7690423,-0.78042656,-0.79000396,-0.80230445,-0.8146271,-0.82563823,-0.83774114,-0.8544897,-0.87613666,-0.8902351,-0.8761717,-0.8115035,-0.67328423,-0.44241527,-0.10871378,0.31557885,0.78526694,1.2343042,1.6043819,1.8628963,2.0001142,2.0224957,1.9485079,1.803269,1.6114738,1.3893322,1.1440111,0.8815013,0.61056703,0.34475327,0.10126665,-0.10628566,-0.27221647,-0.39943796,-0.49627107,-0.5688618,-0.6207351,-0.65660286,-0.6805318,-0.69659907,-0.7091571,-0.7219854,-0.7394197,-0.76083934,-0.7825776,-0.8044047,-0.8254478,-0.84399194,-0.8590675,-0.86902106,-0.8754607,-0.8820278,-0.8877536,-0.88394076,-0.85093594,-0.760078,-0.5841418,-0.30931935,0.058282577,0.49329117,0.9531629,1.3799896,1.7173328,1.9336329,2.0254445,2.009443,1.9101562,1.7515004,1.547807,1.2949065,0.978494,0.59507346,0.19115652,-0.14706287,-0.37439844,-0.5067808,-0.58018255,-0.62423426,-0.65322775,-0.6743754,-0.6929193,-0.71177673,-0.73305416,-0.7548055,-0.7731344,-0.78495044,-0.7901937,-0.7935504,-0.7989958,-0.8070593,-0.8167746,-0.82778037,-0.8420411,-0.86008203,-0.8732364,-0.86208755,-0.8030463,-0.674127,-0.45729977,-0.14611878,0.24830063,0.6975871,1.1533157,1.5575981,1.8626043,2.0421243,2.093946,2.0360804,1.899597,1.7113941,1.4881141,1.2387837,0.9675002,0.6846866,0.4051196,0.14151615,-0.09594293,-0.2998913,-0.46383217,-0.5868208,-0.6734384,-0.7296024,-0.76470834,-0.78908217,-0.8089564,-0.82664865,-0.84233755,-0.85494304,-0.8641787,-0.87284946,-0.8850345,-0.90109146,-0.91518587,-0.922832,-0.92699176,-0.9316857,-0.9377569,-0.9431437,-0.93887967,-0.9066778,-0.821217,-0.65561104,-0.3944181,-0.039475266,0.3903654,0.8553542,1.3027097,1.6785569,1.9417323,2.0781472,2.0976794,2.021166,1.8729448,1.6780965,1.4502615,1.1919613,0.91156065,0.62148535,0.33490086,0.069857754,-0.15840586,-0.34323487,-0.48403817,-0.5824435,-0.64456165,-0.6832028,-0.708571,-0.7266376,-0.7437734,-0.7627422,-0.782717,-0.8007106,-0.8142845,-0.82523334,-0.8361663,-0.8499281,-0.8684569,-0.88928604,-0.9083196,-0.92411935,-0.9368503,-0.9420891,-0.9260407,-0.8650135,-0.72889173,-0.49335065,-0.15651238,0.25875786,0.7167638,1.1724691,1.5732703,1.8725373,2.0438373,2.0891347,2.0325735,1.9036043,1.7279224,1.5211234,1.2856702,1.02242,0.74025035,0.45301935,0.17809476,-0.065690234,-0.26470965,-0.4151909,-0.52215964,-0.59246284,-0.6326651,-0.6532202,-0.6661767,-0.67965865,-0.69898814,-0.7271052,-0.75870943,-0.7852752,-0.8037395,-0.8143202,-0.8220227,-0.8327494,-0.844917,-0.8540344,-0.85844123,-0.8594278,-0.8598614,-0.863092,-0.8696575,-0.8697446,-0.8426432,-0.76420915,-0.6114772,-0.36715013,-0.026370091,0.39631286,0.8611253,1.3095375,1.6834619,1.9446331,2.0804114,2.0998616,2.0277758,1.8883997,1.6983582,1.4725612,1.2198379,0.9443564,0.6563976,0.37174255,0.10571126,-0.12860215,-0.3190932,-0.45688832,-0.54430586,-0.59389657,-0.6215435,-0.64188874,-0.66352546,-0.6877887,-0.71230406,-0.73665863,-0.76194394,-0.78592044,-0.80606705,-0.8225654,-0.8335868,-0.8378856,-0.84142864,-0.8495823,-0.8617693,-0.8773491,-0.8851851,-0.8578276,-0.7704793,-0.6089455,-0.36752352,-0.051678352,0.3199554,0.71354,1.0873137,1.4004847,1.6178473,1.7215679,1.718591,1.6322635,1.4891667,1.3113003,1.1117328,0.89603776,0.66905504,0.43681753,0.20824318,-0.0023887088,-0.18227288,-0.3239488,-0.42422646,-0.48848143,-0.52749896,-0.55206436,-0.57222414,-0.5919631,-0.61033446,-0.62832654,-0.6469689,-0.66468346,-0.6795354,-0.6926166,-0.7063093,-0.71920896
0.0028977906,-0.21796279,-0.4016408,-0.5377099,-0.62765706,-0.68342227,-0.71931416,-0.7463859,-0.76937824,-0.7879038,-0.803524,-0.81968,-0.8376429,-0.85738003,-0.87696314,-0.89114106,-0.8904844,-0.8591565,-0.7763691,-0.621282,-0.37957504,-0.052116804,0.3356162,0.73575276,1.0967299,1.3763722,1.5504448,1.6180037,1.5942987,1.5027481,1.3652664,1.1964146,1.0059733,0.7973419,0.56820875,0.32221797,0.07617738,-0.14923741,-0.33991703,-0.49150398,-0.60472375,-0.6807021,-0.7266679,-0.7540644,-0.7720514,-0.78810424,-0.80567765,-0.82465506,-0.84323984,-0.8580685,-0.86902785,-0.8774952,-0.8776517,-0.8550582,-0.79019445,-0.66070706,-0.44748986,-0.14595388,0.23030984,0.6449377,1.0369372,1.3478965,1.5453881,1.623664,1.6025567,1.5138972,1.3836886,1.2275517,1.0511135,0.85211694,0.6274524,0.382797,0.13227248,-0.108019516,-0.32005227,-0.48854274,-0.6081622,-0.6840758,-0.7289366,-0.75665987,-0.7768577,-0.79482347,-0.8114971,-0.823961,-0.83135796,-0.83624446,-0.8418917,-0.84984756,-0.8559657,-0.84563565,-0.79287314,-0.6723509,-0.46945673,-0.18037596,0.18307957,0.58715653,0.9788743,1.3024135,1.5203754,1.6227963,1.6219406,1.5440269,1.4186779,1.2646606,1.0887198,0.89084584,0.66826344,0.42527318,0.17645457,-0.06044295,-0.2708176,-0.4436664,-0.57312006,-0.6588248,-0.7059856,-0.72942865,-0.7447938,-0.76076657,-0.7816485,-0.8052248,-0.8259902,-0.84107006,-0.8529201,-0.86726946,-0.8825251,-0.8868544,-0.86104536,-0.78109205,-0.6249306,-0.37927815,-0.048519924,0.33978692,0.74171185,1.108421,1.3959054,1.5755074,1.6425042,1.6144909,1.5214306,1.3888383,1.2279044,1.0412142,0.82823205,0.59127086,0.3395897,0.08729116,-0.14794737,-0.34687302,-0.4962117,-0.59681803,-0.65938884,-0.69443804,-0.7137365,-0.72989917,-0.7503473,-0.7760086,-0.8009447,-0.8193949,-0.83275706,-0.8450577,-0.85847664,-0.8706364,-0.8724974,-0.85015833,-0.7820639,-0.6416996,-0.4144446,-0.10253549,0.27605405,0.6810403,1.0577427,1.3567332,1.5472026,1.6234262,1.6037966,1.5182549,1.3898349,1.2307084,1.0474297,0.8422598,0.6154133,0.37091172,0.1243335,-0.10322547,-0.29742292,-0.44985145,-0.5577758,-0.6269656,-0.6685904,-0.69336694,-0.71032,-0.7259522,-0.7424308,-0.76060474,-0.77963847,-0.79782355,-0.8133967,-0.82380146,-0.8279402,-0.8184055,-0.7777459,-0.68310493,-0.51135266,-0.25220722,0.084902704,0.4705547,0.8544636,1.1787661,1.4028089,1.5163779,1.533261,1.4769555,1.3710777,1.2338866,1.073927,0.8910151,0.68344533,0.4547212,0.21551993,-0.020189002,-0.23758593,-0.4219986,-0.56324285,-0.65939265,-0.7183986,-0.7531422,-0.7778373,-0.80362034,-0.82986975,-0.85186315,-0.87054354,-0.8891584,-0.90794903,-0.92338866,-0.93388045,-0.9375343,-0.9231696,-0.8700257,-0.7511633,-0.53779143,-0.21073203,0.22305635,0.7208467,1.2107517,1.6153841,1.8834063,2.0071836,2.009934,1.924421,1.7827078,1.6051977,1.3964126,1.1557388,0.88345397,0.5836426,0.27263868,-0.02448593,-0.2847957,-0.49373868,-0.64889187,-0.75625527,-0.8290177,-0.8846096,-0.9356889,-0.98827714,-1.0393217,-1.0824662,-1.1137861,-1.1309687,-1.1372507,-1.1356677,-1.1278479,-1.1081752,-1.0520426,-0.92800134,-0.7115013,-0.39606807,-0.0015939071,0.43087068,0.8502711,1.2061956,1.4595447,1.5966645,1.6275489,1.5748311,1.4651421,1.3183203,1.1449959,0.9483364,0.7278399,0.48477632,0.23184739,-0.00803119,-0.21859354,-0.3901757,-0.5185397,-0.6080738,-0.66576767,-0.70143783,-0.7260054,-0.74607795,-0.76458293,-0.7813338,-0.79292256,-0.7978724,-0.80058074,-0.80618596,-0.81563216,-0.82236797,-0.81007004,-0.7541181,-0.62291354,-0.387137,-0.035800055,0.4093007,0.8910445,1.3366632,1.6835921,1.8971018,1.9724029,1.9298722,1.8066146,1.6344663,1.4280906,1.1909817,0.922928,0.6283023,0.31882417,0.010746377,-0.27761576,-0.52691007,-0.71927893,-0.848395,-0.9260771,-0.9725131,-1.002669,-1.0241469,-1.0404359,-1.053686,-1.0647761,-1.0729386,-1.079377,-1.0864979,-1.093245,-1.0912979,-1.0639172,-0.98923135,-0.8401115,-0.59015447,-0.23104644,0.21607834,0.7047554,1.1764171,1.5719587,1.8475497,1.9881611,2.0037646,1.9219382,1.7777338,1.5964049,1.3855367,1.1412673,0.86049056,0.5497213,0.22736637,-0.078563794,-0.34225708,-0.5501542,-0.700299,-0.7993901,-0.85784936,-0.8881184,-0.90504766,-0.91942877,-0.93532985,-0.9526616,-0.9698651,-0.98483783,-0.99591166,-1.0077854,-1.0255944,-1.0401379,-1.0267469,-0.95338535,-0.78774965,-0.5062556,-0.110392004,0.3659225,0.8667528,1.3271391,1.6874534,1.9100732,1.990459,1.9530191,1.8359791,1.6728932,1.4786857,1.2525693,0.99102116,0.6980288,0.3876657,0.0801118,-0.20243345,-0.44072586,-0.6238359,-0.75044227,-0.829559,-0.8787828,-0.91488606,-0.9463793,-0.97488517,-0.99948776,-1.019541,-1.0359867,-1.0503016,-1.0619276,-1.0696692,-1.0725477,-1.0621824,-1.0164748,-0.905385,-0.70087373,-0.38547194,0.035492044,0.5252926,1.0238347,1.465705,1.7979537,1.9923574,2.048012,1.9892257,1.8533664,1.6727854,1.4629755,1.2224126,0.94515014,0.63289386,0.30358547,-0.011625492,-0.28658783,-0.50925505,-0.67756426,-0.79603136,-0.8732051,-0.9201905,-0.9504577,-0.97675747,-1.0047597,-1.0314153,-1.0525048,-1.0680981,-1.0793301,-1.0875171,-1.0955939,-1.098503,-1.076816,-1.0031568,-0.84478337,-0.57536644,-0.19318362,0.27774864,0.7906587,1.2805674,1.6818568,1.95096,2.0759325,2.0721588,1.9728782,1.8123326,1.613568,1.3876644,1.1335832,0.8463179,0.53076035,0.20668058,-0.096073695,-0.35529497,-0.5633413,-0.7176136,-0.8224977,-0.89216727,-0.9416821,-0.98060215,-1.0121166,-1.0357223,-1.0544429,-1.0743155,-1.0963047,-1.1192428,-1.1421268,-1.1581979,-1.1542969,-1.1078323,-0.98898566,-0.77102643,-0.43952513,-0.0063129766,0.48860446,0.98938745,1.4363296
-0.7198043,-0.75546354,-0.764219,-0.76064014,-0.7567815,-0.75945663,-0.76849717,-0.7821303,-0.7954297,-0.80397236,-0.809393,-0.814416,-0.8206184,-0.82646155,-0.8234808,-0.7939061,-0.71102726,-0.5478259,-0.28610897,0.07460327,0.5098586,0.971182,1.3940239,1.7170235,1.9013109,1.9370188,1.8398368,1.6425425,1.3813424,1.0821959,0.7644279,0.44909763,0.15687184,-0.098258555,-0.30854276,-0.46541458,-0.56754655,-0.6259706,-0.65099394,-0.65284353,-0.6456298,-0.6391481,-0.63721234,-0.63832986,-0.63921255,-0.6407553,-0.6453216,-0.6547472,-0.6709336,-0.69368106,-0.7149115,-0.71603537,-0.6724243,-0.55599385,-0.3445664,-0.03301287,0.3624547,0.79991806,1.2204633,1.5667939,1.797343,1.8913859,1.8505011,1.6974156,1.4631484,1.1767962,0.86300546,0.5426182,0.23044766,-0.06323286,-0.32029587,-0.5250071,-0.67476225,-0.7729127,-0.8309885,-0.8622906,-0.87734264,-0.8893568,-0.9069985,-0.9291524,-0.94943845,-0.9623612,-0.9667307,-0.96374625,-0.9559207,-0.9457231,-0.9326921,-0.9087784,-0.8516989,-0.73052603,-0.5214841,-0.21601331,0.17722404,0.6291324,1.0913035,1.5068846,1.8247455,2.0104609,2.05551,1.9777582,1.8047702,1.5592359,1.2616582,0.9330299,0.5936191,0.26292595,-0.040588193,-0.2994138,-0.5026389,-0.6493671,-0.74698913,-0.8092955,-0.84993005,-0.8785637,-0.90321106,-0.9324269,-0.9685513,-1.0052485,-1.0352354,-1.0536064,-1.062807,-1.0700434,-1.0769259,-1.0766313,-1.053398,-0.983626,-0.8389349,-0.5942864,-0.24037795,0.20697543,0.70491517,1.1942784,1.6131607,1.9090794,2.054263,2.0521536,1.9288307,1.720483,1.4587114,1.1640668,0.8525632,0.5390875,0.23761436,-0.03637383,-0.26650518,-0.44334105,-0.5691837,-0.65094674,-0.69764733,-0.7243354,-0.745544,-0.76743776,-0.79037064,-0.81377554,-0.8365126,-0.856849,-0.8757631,-0.8965602,-0.92053986,-0.94412154,-0.9528192,-0.92069244,-0.8189421,-0.62218314,-0.31681827,0.090928376,0.5671396,1.0476924,1.4636265,1.7665242,1.9314173,1.9567325,1.8595631,1.6657357,1.4034231,1.0994827,0.77953655,0.46651575,0.1764761,-0.079167254,-0.2912026,-0.45461375,-0.5707383,-0.64694387,-0.69414246,-0.72647786,-0.75711554,-0.7912178,-0.82597846,-0.8560581,-0.88000244,-0.9003178,-0.9187432,-0.9350545,-0.94930756,-0.961478,-0.9665801,-0.950459,-0.8896725,-0.7554999,-0.52175516,-0.17718036,0.2622934,0.75384194,1.2384907,1.6526302,1.9442779,2.08952,2.090795,1.966073,1.7419722,1.4493032,1.1197753,0.7795379,0.44719434,0.13754898,-0.13665232,-0.3630165,-0.53135633,-0.6414535,-0.7069239,-0.7476938,-0.7794878,-0.80935776,-0.8376843,-0.8641326,-0.8880243,-0.90661496,-0.9212653,-0.9376967,-0.9592431,-0.9850273,-1.0069119,-1.0083957,-0.9648815,-0.84320307,-0.616783,-0.28210026,0.14084083,0.61263376,1.0761842,1.4652005,1.7300265,1.8553437,1.8521886,1.7439814,1.5555798,1.310488,1.0313939,0.73667806,0.44233102,0.16517833,-0.08121448,-0.2868218,-0.44410464,-0.55492646,-0.6289713,-0.6748604,-0.70217115,-0.72306186,-0.7469215,-0.7756567,-0.802995,-0.8245316,-0.8435979,-0.86442804,-0.889375,-0.9173821,-0.94123244,-0.9484672,-0.92238677,-0.8400484,-0.6759528,-0.41410622,-0.055315252,0.3788429,0.8426321,1.2749772,1.6197305,1.8418114,1.9291186,1.8890626,1.7455163,1.5274682,1.2582392,0.9577359,0.64678705,0.34493858,0.06667759,-0.17860831,-0.38150632,-0.5335962,-0.63478,-0.69388235,-0.72557443,-0.74581444,-0.7648017,-0.7848097,-0.8034982,-0.8197221,-0.8347699,-0.84803,-0.8592837,-0.87164706,-0.8851991,-0.89129263,-0.87400526,-0.8137429,-0.6863456,-0.46804318,-0.15047105,0.25046802,0.69719046,1.1353809,1.5027595,1.7537475,1.8739597,1.8703713,1.7644415,1.5841146,1.350216,1.0755526,0.77443916,0.46686158,0.17477295,-0.08430547,-0.30073845,-0.4702674,-0.59261674,-0.67313755,-0.72309285,-0.7562531,-0.78275263,-0.8068654,-0.8294888,-0.850928,-0.87074274,-0.88620216,-0.8960684,-0.90351677,-0.91070205,-0.9161824,-0.91481423,-0.89159596,-0.82238245,-0.68099123,-0.44559726,-0.11024738,0.30673876,0.76281863,1.1978604,1.5525036,1.7861934,1.8830961,1.8515664,1.71633,1.5065413,1.2477986,0.95776504,0.6514341,0.35083532,0.07794282,-0.15635319,-0.34761184,-0.4928048,-0.5936768,-0.6578632,-0.6964352,-0.7221616,-0.74506587,-0.76813424,-0.7889104,-0.8061577,-0.8237947,-0.84492517,-0.8689194,-0.8944067,-0.9181429,-0.93391246,-0.92987317,-0.886449,-0.77955437,-0.5860624,-0.2943802,0.08563688,0.5206775,0.9597698,1.3461021,1.6303738,1.7841818,1.8057414,1.7142875,1.5379838,1.3035142,1.0321381,0.7411303,0.44882768,0.17651278,-0.060199004,-0.25426328,-0.40198606,-0.5044805,-0.56982124,-0.6114578,-0.6430578,-0.6701252,-0.6913632,-0.7076581,-0.7242819,-0.7448161,-0.7671788,-0.78872216,-0.80988365,-0.8331753,-0.858734,-0.87781554,-0.87071496,-0.80733293,-0.6553709,-0.3944766,-0.028713927,0.40943336,0.8705129,1.2973678,1.6333278,1.8400319,1.905945,1.8432679,1.680775,1.4491154,1.1700637,0.8622864,0.547688,0.24864209,-0.016141748,-0.23680069,-0.41234714,-0.54421663,-0.6356737,-0.69521683,-0.73518836,-0.7666243,-0.7944748,-0.8182938,-0.8362437,-0.8473192,-0.8556578,-0.86642385,-0.8782636,-0.8894194,-0.9001397,-0.9046656,-0.8868238,-0.82279664,-0.68902814,-0.4673137,-0.14981069,0.2503069,0.69333994,1.1212064,1.4780895,1.7240268,1.8387811,1.8250697,1.7023426,1.4976563,1.239043,0.94949704,0.6469745,0.3476413,0.06808043,-0.17515904,-0.36927396,-0.5114659,-0.60919774,-0.67135173,-0.7073275,-0.7288772,-0.7455746,-0.76348394,-0.78380215,-0.8042286,-0.8234902,-0.84132963,-0.85961246,-0.8812579,-0.90447766,-0.92203254,-0.91998804,-0.8726849,-0.749896,-0.53253907,-0.21910408,0.1758249,0.6202455,1.0630339,1.4453812,1.7207239,1.8674066,1.8878335
-0.74020576,-0.723394,-0.6632474,-0.5376337,-0.3322662,-0.042618327,0.322531,0.73405504,1.1450999,1.5040141,1.7660809,1.9130037,1.9543184,1.9070821,1.7917751,1.6289703,1.4331559,1.2158107,0.9825108,0.7325739,0.46961802,0.20952177,-0.02617148,-0.22320387,-0.3773578,-0.48898765,-0.5613848,-0.60404545,-0.6314633,-0.6581566,-0.6917319,-0.7296563,-0.76538086,-0.7939929,-0.81497383,-0.83266556,-0.8524026,-0.8735194,-0.88960755,-0.8982218,-0.9012926,-0.90066594,-0.8973035,-0.89189905,-0.888192,-0.88946307,-0.888337,-0.8636166,-0.78887725,-0.6423521,-0.41116336,-0.096746914,0.28391418,0.70221347,1.1123587,1.460387,1.7114676,1.8554207,1.8964509,1.8522931,1.7523668,1.6164559,1.449835,1.2564987,1.035742,0.7872705,0.5201295,0.2510207,0.002061853,-0.20797957,-0.3689276,-0.48100418,-0.5523047,-0.5918893,-0.6130941,-0.6316556,-0.65610605,-0.68665,-0.71714526,-0.74307317,-0.7661274,-0.7880008,-0.80938417,-0.82896906,-0.8428976,-0.8485496,-0.8472521,-0.843369,-0.8394567,-0.83714944,-0.8394205,-0.84742457,-0.8562229,-0.85163605,-0.8138565,-0.7234342,-0.5604879,-0.3105548,0.025176255,0.42762658,0.857174,1.2579575,1.5798953,1.7973737,1.9042232,1.9067622,1.827117,1.6947734,1.5321947,1.3464499,1.1331093,0.890876,0.62704426,0.3590332,0.11330319,-0.09128109,-0.25341237,-0.37579018,-0.46207613,-0.52484035,-0.57551277,-0.6188399,-0.6568772,-0.68908423,-0.71638066,-0.7418166,-0.7677605,-0.79387474,-0.8157754,-0.8298409,-0.83702135,-0.8397668,-0.84030753,-0.840522,-0.84092987,-0.84268373,-0.8473739,-0.8567408,-0.8695952,-0.8735617,-0.8475018,-0.7686029,-0.6145993,-0.3695022,-0.036023825,0.3615705,0.78680843,1.1949664,1.5393775,1.7890165,1.93337,1.9740167,1.9241261,1.8052597,1.6374182,1.4332441,1.1979758,0.938997,0.6692292,0.40071854,0.147174,-0.07733514,-0.26261765,-0.4017655,-0.497376,-0.561981,-0.61017907,-0.65157396,-0.6863504,-0.71189713,-0.72917086,-0.7408745,-0.75199056,-0.76850414,-0.79127413,-0.8153336,-0.83784956,-0.85820234,-0.8715114,-0.8761999,-0.8778083,-0.88032377,-0.8836868,-0.8878578,-0.8912861,-0.8842247,-0.8530833,-0.78214234,-0.6501162,-0.43664718,-0.12767245,0.27078047,0.7205159,1.1631831,1.5398076,1.8099133,1.9610113,2.0001009,1.9446814,1.8216423,1.6586392,1.467271,1.2451763,0.99367666,0.7244866,0.45345333,0.1978737,-0.02699978,-0.21559486,-0.3660353,-0.47645423,-0.55121475,-0.59926903,-0.6307615,-0.65507567,-0.6815715,-0.7166989,-0.75677776,-0.79277134,-0.8196216,-0.8381542,-0.8508064,-0.86026096,-0.8704425,-0.8823314,-0.89268464,-0.89753956,-0.8958027,-0.89111435,-0.8877773,-0.884009,-0.8738117,-0.84449196,-0.7703253,-0.62305474,-0.38643524,-0.061984845,0.33242825,0.7635553,1.1826496,1.5411155,1.8044095,1.9539273,1.9941678,1.9484551,1.8416299,1.6890496,1.495485,1.264502,1.0028263,0.71957046,0.4304374,0.15663369,-0.0822304,-0.27257195,-0.41061142,-0.5031695,-0.5633781,-0.6043509,-0.63501954,-0.663745,-0.69794816,-0.73550475,-0.7688089,-0.79656476,-0.82202995,-0.84481174,-0.8618438,-0.87221557,-0.87815636,-0.884086,-0.89255613,-0.89976275,-0.8998495,-0.89646137,-0.89950866,-0.91135913,-0.9201307,-0.89919007,-0.8218039,-0.6739332,-0.4480415,-0.1388329,0.2471052,0.6792996,1.1099763,1.4883885,1.7706469,1.935121,1.9885855,1.9552023,1.8596317,1.7169701,1.5379936,1.3278942,1.0846585,0.8145902,0.5351034,0.26553386,0.023200085,-0.1812191,-0.34422532,-0.4681889,-0.55726415,-0.61551905,-0.65415287,-0.68431234,-0.71024156,-0.73506,-0.7606837,-0.7883463,-0.8157954,-0.83889025,-0.85693353,-0.86975545,-0.8774645,-0.878908,-0.87417185,-0.8692135,-0.8697077,-0.87466305,-0.8797312,-0.88526917,-0.89025295,-0.87946725,-0.8297783,-0.719985,-0.5316391,-0.25539806,0.10409629,0.52604836,0.9668433,1.370371,1.6895651,1.8974172,1.9907461,1.985285,1.9048442,1.7730227,1.605416,1.408317,1.1865366,0.94325995,0.681211,0.41323203,0.15988554,-0.0629921,-0.24734621,-0.39122906,-0.4967719,-0.56590426,-0.6063717,-0.63527286,-0.66740316,-0.70672035,-0.74598736,-0.7785806,-0.80647784,-0.8314272,-0.8526871,-0.86839026,-0.87600374,-0.87522787,-0.86899424,-0.8633217,-0.8623922,-0.86527157,-0.8681004,-0.8686605,-0.8691281,-0.8701266,-0.8595052,-0.8120133,-0.70188594,-0.5108201,-0.22911057,0.13977367,0.56965774,1.0124348,1.4123107,1.7202692,1.9091026,1.9807189,1.9558904,1.8615451,1.7222426,1.5504878,1.3460697,1.1071905,0.8426485,0.5690942,0.3008853,0.05188941,-0.16400893,-0.33503994,-0.45509872,-0.5320097,-0.58258325,-0.62319803,-0.6639508,-0.70427734,-0.73920995,-0.76700866,-0.78941673,-0.80561465,-0.81519103,-0.8241162,-0.83423126,-0.843034,-0.8523055,-0.8624331,-0.86880374,-0.8690942,-0.86612844,-0.86256224,-0.8599033,-0.85424644,-0.8335037,-0.78465676,-0.6903756,-0.5294364,-0.28697628,0.043701343,0.44855824,0.88303626,1.2900002,1.6217903,1.8503819,1.9672316,1.9785105,1.9006165,1.7573022,1.5726748,1.3611583,1.1266365,0.87022537,0.59887236,0.33012465,0.08425339,-0.12847759,-0.3046935,-0.4380776,-0.5302793,-0.5948751,-0.63957494,-0.67015904,-0.6942987,-0.7154922,-0.73904794,-0.76460665,-0.78754574,-0.8081525,-0.82632554,-0.84207207,-0.85253435,-0.8544483,-0.8508809,-0.8463309,-0.84377897,-0.8436472,-0.8464205,-0.8518915,-0.8560867,-0.8515914,-0.82319975,-0.74783194,-0.59930354,-0.3579027,-0.02266308,0.38757437,0.8340898,1.2598115,1.6099844,1.8515352,1.9763631,1.9952804,1.927051,1.7956761,1.6254033,1.4281377,1.2032471,0.94720435,0.6651614,0.37760738,0.11213487,-0.11335429,-0.29434356,-0.43012875,-0.52427053,-0.5873595,-0.6303039,-0.66035736,-0.6839305,-0.7085402,-0.7384422,-0.7717985,-0.8027757,-0.8242397,-0.8342262,-0.83763117
0.77013177,1.1807538,1.5275699,1.7748712,1.9038258,1.9211473,1.8509893,1.7249075,1.5689067,1.3901876,1.1826394,0.9444282,0.68526,0.42245054,0.17637423,-0.03633041,-0.20827256,-0.33922976,-0.43281913,-0.49661317,-0.5430827,-0.5834583,-0.6213436,-0.65522337,-0.6836224,-0.7083445,-0.73100376,-0.75280935,-0.77741426,-0.8055834,-0.83347166,-0.85528195,-0.8660241,-0.86403483,-0.8540105,-0.8475848,-0.851143,-0.86101145,-0.8678215,-0.8568018,-0.80952626,-0.70606387,-0.5288404,-0.26498163,0.08533383,0.49773237,0.92877436,1.3249114,1.6363393,1.8366737,1.9278938,1.9260422,1.8476627,1.7118778,1.5358073,1.3291832,1.0994575,0.85110724,0.58874935,0.32398346,0.07755231,-0.13015208,-0.29144523,-0.40800253,-0.48687038,-0.5389704,-0.57594764,-0.6077793,-0.63826877,-0.66692054,-0.6953313,-0.7255488,-0.7568125,-0.78706145,-0.8128839,-0.8307863,-0.8395999,-0.8409871,-0.8388441,-0.83672744,-0.8369421,-0.8396634,-0.8446432,-0.8544763,-0.86657774,-0.8643788,-0.8207544,-0.7082225,-0.5072473,-0.20830289,0.18146531,0.62692475,1.071849,1.4591935,1.7432402,1.901641,1.9444441,1.9037136,1.8106724,1.6822996,1.5226258,1.3270214,1.0922134,0.82809067,0.5540039,0.2909681,0.058177005,-0.13206552,-0.27777308,-0.3874645,-0.47282407,-0.5407148,-0.594314,-0.636735,-0.67251384,-0.7051459,-0.7374335,-0.77243775,-0.8095441,-0.8428776,-0.8651913,-0.8765477,-0.8827844,-0.88875574,-0.896622,-0.9030134,-0.90514296,-0.9046696,-0.90355796,-0.901316,-0.89223665,-0.8625526,-0.7844469,-0.62792176,-0.37951544,-0.042682625,0.36399058,0.8058422,1.23065,1.5825151,1.8246511,1.9477909,1.9677985,1.9098696,1.793876,1.6350737,1.4460198,1.2351182,1.0025127,0.74488246,0.4688531,0.19585806,-0.046773992,-0.23940513,-0.37657532,-0.46741825,-0.5288758,-0.5746849,-0.61402565,-0.6531589,-0.6930155,-0.7311169,-0.76455945,-0.79179746,-0.8134104,-0.83086413,-0.8454723,-0.8571813,-0.86874944,-0.8821726,-0.89106745,-0.8902706,-0.8830229,-0.87634456,-0.8755896,-0.87727624,-0.8662792,-0.8221896,-0.7219524,-0.54314166,-0.27347702,0.08390163,0.5034705,0.93929493,1.3384627,1.6515524,1.8501176,1.9342315,1.9217926,1.838967,1.709779,1.5501587,1.3670442,1.1601838,0.9291525,0.6773001,0.41488335,0.1603943,-0.066240095,-0.25134143,-0.39056027,-0.4877819,-0.55398244,-0.6028461,-0.64374745,-0.6812609,-0.71578187,-0.74514097,-0.7705932,-0.79668105,-0.82490987,-0.8497949,-0.86435604,-0.86897874,-0.8690885,-0.8679662,-0.8658628,-0.8632746,-0.86029613,-0.8553984,-0.8494634,-0.8406287,-0.8165996,-0.75879794,-0.6429144,-0.44425827,-0.1523562,0.22147578,0.6426967,1.0639746,1.4367712,1.7194663,1.8911266,1.9548464,1.929888,1.8406779,1.707115,1.5386639,1.3364301,1.1024923,0.8439502,0.5732582,0.30769747,0.06592513,-0.13814448,-0.29915756,-0.42028025,-0.51280606,-0.5857916,-0.64012206,-0.6791191,-0.70991355,-0.73639536,-0.75866807,-0.7776513,-0.7958828,-0.81369007,-0.83064127,-0.8454646,-0.8540562,-0.8533657,-0.84439635,-0.8298205,-0.8148672,-0.8080016,-0.81178796,-0.8229814,-0.83439505,-0.82881993,-0.784143,-0.67801154,-0.49149644,-0.21684393,0.14056888,0.55576855,0.98301286,1.3698062,1.6704246,1.8575388,1.9304464,1.908772,1.8176196,1.6809208,1.5152824,1.3238949,1.1029656,0.85042197,0.57735634,0.3100801,0.06975075,-0.13583711,-0.30382463,-0.43419462,-0.5280687,-0.5896434,-0.6274824,-0.65088475,-0.67126995,-0.6985007,-0.73222685,-0.7646494,-0.79149795,-0.8146299,-0.8346717,-0.8475131,-0.8486693,-0.8384359,-0.8252138,-0.8189854,-0.8231554,-0.8362022,-0.8534906,-0.86810184,-0.86966485,-0.8420197,-0.7659504,-0.6209455,-0.38959056,-0.070881575,0.31620258,0.739577,1.154215,1.5090368,1.7675694,1.9174775,1.9621575,1.9164649,1.8045632,1.6487296,1.4596444,1.2376492,0.9859748,0.716343,0.4450702,0.1899876,-0.036595028,-0.22779626,-0.3782332,-0.48791832,-0.5646995,-0.61821926,-0.6557341,-0.6836343,-0.7066041,-0.72800845,-0.7497584,-0.7722708,-0.79520226,-0.8163226,-0.8335713,-0.8453884,-0.8521842,-0.85849994,-0.86651343,-0.87246376,-0.8737987,-0.8720093,-0.86844826,-0.8631762,-0.8478316,-0.800432,-0.6927689,-0.4997451,-0.20932186,0.17053735,0.6057901,1.0442475,1.4330213,1.7268834,1.9033974,1.9687734,1.9462609,1.8628538,1.735754,1.5703076,1.3681307,1.1331898,0.871827,0.5921162,0.3099306,0.051374163,-0.16298863,-0.32955748,-0.4542228,-0.5448574,-0.60839665,-0.6527595,-0.68642426,-0.71452945,-0.7417881,-0.77239305,-0.80488473,-0.8322195,-0.8474102,-0.8521216,-0.8559996,-0.86321336,-0.8706578,-0.87613803,-0.8768616,-0.8711618,-0.8632115,-0.8580361,-0.8564451,-0.8539917,-0.83679295,-0.7778597,-0.6514506,-0.44178373,-0.13753735,0.25507024,0.70011884,1.14003,1.5186659,1.8013496,1.9749299,2.0417533,2.013424,1.9080468,1.7456787,1.5432932,1.3140326,1.0661532,0.8075546,0.5476476,0.29464105,0.0580133,-0.15065923,-0.32294205,-0.45730868,-0.55675906,-0.6298008,-0.68622607,-0.72962105,-0.76449525,-0.7952687,-0.8208273,-0.8400318,-0.8523451,-0.86056215,-0.86976343,-0.87910265,-0.8842881,-0.8841807,-0.88085216,-0.8760225,-0.8718936,-0.87221795,-0.87725866,-0.88101566,-0.872176,-0.8324688,-0.73705274,-0.56395966,-0.3033922,0.038047012,0.43750674,0.8596849,1.2612319,1.5964452,1.8287555,1.9450713,1.9584262,1.895468,1.7801908,1.626411,1.4405454,1.2244853,0.97882295,0.7111702,0.4395541,0.18423906,-0.041412413,-0.23122458,-0.3820814,-0.4937259,-0.5735311,-0.6330282,-0.6772155,-0.7075512,-0.73008007,-0.7521556,-0.7746196,-0.7927463,-0.80591625,-0.8177982,-0.8317875,-0.85121167,-0.8741971,-0.8934465,-0.90389127,-0.9050078,-0.90006965,-0.8956583,-0.8957153,-0.8926583,-0.8681304,-0.79937893,-0.66553706,-0.45116705
-0.84752846,-0.8560635,-0.86877495,-0.88450754,-0.8957436,-0.8988643,-0.8971923,-0.89069456,-0.87858194,-0.8664261,-0.8600096,-0.8606407,-0.86497414,-0.8631644,-0.84303194,-0.7912198,-0.68706393,-0.50833005,-0.24398658,0.10042861,0.5040181,0.9292924,1.325533,1.6477165,1.8698733,1.9876003,2.01482,1.9725926,1.8774644,1.7410016,1.5749106,1.381745,1.1563264,0.90208954,0.6306786,0.36151657,0.11936034,-0.08082402,-0.23514967,-0.34698048,-0.42808247,-0.49045342,-0.54264545,-0.59072137,-0.63436973,-0.6706386,-0.6993071,-0.7229703,-0.74550986,-0.7679114,-0.7869693,-0.8024581,-0.8182684,-0.83327216,-0.8428042,-0.8471787,-0.8505019,-0.8536134,-0.8550497,-0.85422087,-0.8502245,-0.8451501,-0.8436492,-0.8453202,-0.8396464,-0.8102249,-0.7394263,-0.6051908,-0.38614053,-0.07233209,0.32424602,0.7623984,1.1857672,1.5434316,1.8021873,1.952998,2.0063057,1.980002,1.8916813,1.7607245,1.6044217,1.4273771,1.2264469,0.999557,0.74900687,0.48675346,0.23177841,0.0033786302,-0.18441692,-0.3268232,-0.42826575,-0.50055134,-0.5552165,-0.59754384,-0.62922305,-0.65427876,-0.6786425,-0.70424867,-0.72985446,-0.7547012,-0.77832615,-0.8002785,-0.8187824,-0.83116287,-0.84069645,-0.85260195,-0.86452216,-0.87287813,-0.8751253,-0.868925,-0.8562515,-0.8422633,-0.8333174,-0.8293628,-0.82279277,-0.8031711,-0.75236243,-0.64626557,-0.4627989,-0.19254097,0.15631352,0.5622516,0.98570985,1.3749609,1.6850214,1.8879732,1.9787754,1.9737556,1.9017012,1.7920648,1.662972,1.515854,1.343261,1.1400303,0.90502703,0.6438518,0.37463868,0.12592933,-0.0762558,-0.22368316,-0.32490835,-0.3938488,-0.44366154,-0.4855298,-0.5264724,-0.568697,-0.6142018,-0.66209036,-0.7066435,-0.74511564,-0.7784344,-0.8063376,-0.8271553,-0.8389897,-0.84331954,-0.8463882,-0.850914,-0.8548797,-0.8581489,-0.85926276,-0.85852975,-0.86202776,-0.8709897,-0.8795664,-0.88172096,-0.8736492,-0.8486805,-0.7919461,-0.6819662,-0.49549356,-0.21367279,0.16354956,0.6016052,1.0442002,1.435742,1.7339691,1.9231634,2.0078993,2.0043478,1.9372911,1.8280492,1.6890545,1.5234095,1.329226,1.1064795,0.8591461,0.5967257,0.33477825,0.09374576,-0.10736028,-0.25967887,-0.3663029,-0.43769535,-0.48795876,-0.5313933,-0.5748376,-0.6188517,-0.66288805,-0.7028356,-0.73722506,-0.7680803,-0.79282033,-0.8107395,-0.82373893,-0.8302308,-0.8315858,-0.83450174,-0.844439,-0.8601993,-0.8739853,-0.87805593,-0.87119627,-0.86098385,-0.8575295,-0.86398154,-0.87241435,-0.8651225,-0.8236423,-0.7322675,-0.57163537,-0.32401067,0.012024493,0.4144297,0.8431834,1.2524887,1.5975863,1.8428688,1.9757017,2.0087922,1.9667037,1.8722904,1.7432201,1.5877675,1.402213,1.1803141,0.9267641,0.6586955,0.39700136,0.16110685,-0.040269136,-0.20652492,-0.33157286,-0.41554263,-0.4714872,-0.5138412,-0.5531702,-0.5935454,-0.6335766,-0.66844666,-0.69490975,-0.71569306,-0.7325398,-0.74412984,-0.75371796,-0.7700412,-0.795348,-0.82033235,-0.83890915,-0.8523656,-0.8604469,-0.8645649,-0.8697093,-0.87807477,-0.88952714,-0.9028313,-0.91336447,-0.9128822,-0.88469625,-0.8041036,-0.64960957,-0.40675896,-0.073275745,0.3342912,0.7800235,1.2111043,1.575015,1.8389864,1.9948438,2.0527763,2.0308857,1.9501332,1.8291248,1.6763626,1.4903771,1.2679594,1.0141222,0.7441626,0.4764591,0.22765154,0.0090420935,-0.17459457,-0.3195828,-0.4277088,-0.5088542,-0.57214415,-0.62461287,-0.6724225,-0.71878356,-0.76293594,-0.80251926,-0.8361234,-0.8623126,-0.88153774,-0.89679337,-0.90660906,-0.9076147,-0.9042926,-0.90025085,-0.8924423,-0.8817434,-0.87132716,-0.85825,-0.8386493,-0.8185613,-0.80577165,-0.79795164,-0.78780067,-0.7613703,-0.69528,-0.56517154,-0.35480765,-0.061115563,0.3069515,0.7228278,1.1391133,1.502976,1.7752818,1.9393144,1.9972943,1.968336,1.8831989,1.7654687,1.6220719,1.4469275,1.2349664,0.9933162,0.73243,0.46464396,0.20945995,-0.012689537,-0.19017489,-0.32406473,-0.42107975,-0.4866968,-0.5272435,-0.5543255,-0.5803442,-0.609614,-0.6411615,-0.6729093,-0.701182,-0.7225437,-0.73686653,-0.74936676,-0.7666694,-0.7883936,-0.8082742,-0.82204545,-0.8281321,-0.8261976,-0.81828004,-0.8095763,-0.80497015,-0.80600786,-0.81135136,-0.81664395,-0.8155053,-0.7948504,-0.7330245,-0.60590744,-0.39213404,-0.086304605,0.2957353,0.71905446,1.1322132,1.4849595,1.7437004,1.897445,1.9537334,1.927027,1.8360279,1.7026755,1.5424091,1.3583895,1.1489626,0.913149,0.65612286,0.39382806,0.14610177,-0.070276484,-0.24630423,-0.38064727,-0.4758548,-0.53810406,-0.5751054,-0.5966608,-0.6153489,-0.6395188,-0.67064893,-0.7045276,-0.7309552,-0.74435264,-0.75109386,-0.759262,-0.77102166,-0.78486747,-0.7988482,-0.8108816,-0.8187823,-0.821919,-0.81878614,-0.8076808,-0.79301614,-0.7839442,-0.784238,-0.7869373,-0.7795795,-0.74724585,-0.6721529,-0.53400457,-0.31274033,-0.0015859134,0.38207978,0.7977644,1.1942306,1.5267534,1.7648236,1.8969752,1.9326928,1.8924004,1.7991757,1.6754899,1.5323482,1.3654321,1.1687144,0.9449438,0.70213085,0.45101532,0.20905915,-0.005988228,-0.18583053,-0.32655066,-0.42843014,-0.49826062,-0.5459465,-0.5834182,-0.6173562,-0.6510492,-0.6870612,-0.72011226,-0.7431868,-0.756206,-0.7678746,-0.7854221,-0.80433595,-0.8180257,-0.8242734,-0.82447493,-0.8226411,-0.8221267,-0.82543206,-0.83209497,-0.8383116,-0.8416369,-0.840265,-0.8341,-0.824989,-0.80456305,-0.7527611,-0.64584833,-0.4624963,-0.19491696,0.14768021,0.54234177,0.95312095,1.3355081,1.6460482,1.8540177,1.9523604,1.9568881,1.895564,1.7938395,1.6632181,1.5064435,1.3221512,1.1056869,0.8587307,0.59321827,0.32953078,0.09018133,-0.11006593,-0.26612455,-0.37966266,-0.45616248,-0.5066184,-0.5454913,-0.5796652,-0.61423194,-0.6544801,-0.6938347
1.9342154,1.9466541,1.8664693,1.7201,1.5265089,1.2941368,1.0293709,0.74167734,0.4423507,0.1463375,-0.13032827,-0.37448028,-0.5762024,-0.7301112,-0.84087324,-0.9218693,-0.9849458,-1.0329998,-1.0637723,-1.0802712,-1.0873212,-1.086927,-1.0844029,-1.084482,-1.0815088,-1.0553501,-0.97674537,-0.8193269,-0.56953037,-0.23751053,0.14393057,0.5332142,0.8867152,1.1640785,1.3400782,1.4152142,1.4109844,1.3513436,1.2503914,1.1151903,0.9495154,0.75178576,0.5232136,0.27756315,0.03716265,-0.17460005,-0.34226692,-0.46026212,-0.529739,-0.5606069,-0.57044256,-0.5789127,-0.59802306,-0.6269733,-0.6607555,-0.6976154,-0.7364261,-0.77376235,-0.8043768,-0.8190922,-0.8048205,-0.7427683,-0.60510266,-0.36810502,-0.029892417,0.38032243,0.80545187,1.1812372,1.4562508,1.6060402,1.6360463,1.5667344,1.4233205,1.2296472,0.9998433,0.7399936,0.45543107,0.15627235,-0.13926312,-0.40829483,-0.63049877,-0.7934136,-0.89664674,-0.9530691,-0.9844231,-1.0096451,-1.0360527,-1.0633787,-1.089485,-1.1121233,-1.1300273,-1.1406536,-1.1384735,-1.1160094,-1.0588028,-0.94155836,-0.7362099,-0.4277625,-0.027439082,0.427528,0.88378555,1.2846694,1.5843133,1.7613636,1.823334,1.7945439,1.7020826,1.5661541,1.3931326,1.1788186,0.91911244,0.6193332,0.29761037,-0.017562782,-0.29485595,-0.51237094,-0.6665618,-0.76346433,-0.81206036,-0.8314178,-0.8437962,-0.86379814,-0.89778113,-0.9440266,-0.99685293,-1.0496082,-1.0927126,-1.1133457,-1.0964843,-1.0232862,-0.8721521,-0.6260869,-0.2807561,0.14410253,0.6019364,1.0327965,1.3797735,1.6085532,1.7162617,1.7216803,1.6539329,1.5388702,1.3859607,1.1919346,0.9528646,0.6683529,0.34906337,0.022062037,-0.28029472,-0.5293746,-0.70766187,-0.8180089,-0.8773263,-0.906922,-0.92795616,-0.95286477,-0.9841676,-1.0203668,-1.0581362,-1.0935957,-1.1242286,-1.1461656,-1.1474417,-1.1073306,-0.9989968,-0.7962926,-0.48783582,-0.084401295,0.37841374,0.8418491,1.2419559,1.5315698,1.6938957,1.7406648,1.6965035,1.5902153,1.4464531,1.2728051,1.0622132,0.80805427,0.5159423,0.20618606,-0.09284903,-0.3543711,-0.5610706,-0.7072433,-0.79821354,-0.8498887,-0.8798045,-0.8988996,-0.91429424,-0.931466,-0.9540449,-0.9842407,-1.0216416,-1.0597281,-1.0853993,-1.0787095,-1.0107642,-0.848876,-0.57231736,-0.18961379,0.26074702,0.72241586,1.1342778,1.4456959,1.6304952,1.6933653,1.6616143,1.5661268,1.4255756,1.2443441,1.022011,0.7599731,0.46773216,0.16312528,-0.13573582,-0.40604177,-0.6236186,-0.77876407,-0.87329936,-0.91638505,-0.9277803,-0.9288444,-0.93326306,-0.9461001,-0.9646621,-0.9839159,-1.0009587,-1.0134877,-1.0154411,-0.99042374,-0.91182864,-0.753611,-0.50049317,-0.15308438,0.26635498,0.7103555,1.1163535,1.4286976,1.6168045,1.6827979,1.6550362,1.5667927,1.4385878,1.2764449,1.0773134,0.8388996,0.56739056,0.27624878,-0.012714884,-0.27095184,-0.47468853,-0.6118096,-0.682537,-0.70118576,-0.69071347,-0.6710922,-0.65569156,-0.6536418,-0.6686373,-0.6987732,-0.74003583,-0.78680205,-0.83103126,-0.86102384,-0.85698277,-0.7892905,-0.6290411,-0.3639318,-0.005610399,0.4090985,0.8275479,1.1963348,1.4712721,1.6281947,1.6668184,1.6070772,1.4794874,1.3061676,1.0953363,0.8503231,0.5716355,0.2627527,-0.060057715,-0.36853027,-0.6303924,-0.82261735,-0.9394237,-0.9913795,-1.0013634,-0.9936246,-0.9866195,-0.99166507,-1.0109267,-1.0396352,-1.0708807,-1.1015676,-1.1318357,-1.1565253,-1.1592838,-1.109095,-0.96722454,-0.70906854,-0.33575448,0.12531339,0.61972225,1.0771424,1.4349513,1.6598225,1.7511101,1.7312118,1.6336589,1.4860735,1.2994651,1.0729332,0.80493706,0.5008491,0.17808403,-0.13626315,-0.4180624,-0.6521572,-0.8301098,-0.9528733,-1.0314907,-1.0818906,-1.1183447,-1.1486754,-1.1754688,-1.1993282,-1.2222407,-1.2456362,-1.265065,-1.273138,-1.2556889,-1.1868448,-1.03618,-0.7774903,-0.4035629,0.063405976,0.5749687,1.0656186,1.4728311,1.7581736,1.9167062,1.9685373,1.9410939,1.8582183,1.7320505,1.56497,1.355516,1.1013862,0.8130304,0.52001387,0.25579166,0.037814282,-0.12938483,-0.24649797,-0.32182798,-0.36718753,-0.39618304,-0.42247054,-0.45985338,-0.5208646,-0.6100779,-0.72396976,-0.85200745,-0.9765559,-1.0700293,-1.0988876,-1.0324492,-0.8524771,-0.5694302,-0.21825689,0.16269201,0.5334691,0.8494484,1.0755041,1.1969415,1.219777,1.168299,1.0728186,0.9521693,0.8094659,0.64116883,0.44680882,0.23230341,0.010311343,-0.19922158,-0.3782997,-0.51927793,-0.61963457,-0.68209034,-0.7179956,-0.7387365,-0.7495413,-0.7549886,-0.7613835,-0.7706589,-0.77986455,-0.78744906,-0.7929364,-0.7895713,-0.7607126,-0.6819217,-0.52817404,-0.28651473,0.033901673,0.40199026,0.77254766,1.0971221,1.337592,1.4776396,1.5247358,1.4992989,1.4186112,1.2887853,1.1069326,0.87003285,0.5847512,0.26697138,-0.060989995,-0.3694142,-0.6305689,-0.8326376,-0.97930455,-1.0795305,-1.1435074,-1.1814511,-1.2001723,-1.2054666,-1.2055666,-1.207751,-1.2138343,-1.2191777,-1.2142236,-1.1860578,-1.1160089,-0.9803054,-0.7577144,-0.44071114,-0.045073077,0.39164025,0.8173245,1.176381,1.4270796,1.5550641,1.574907,1.5160741,1.4041783,1.2538575,1.0718288,0.86115617,0.6243217,0.36692157,0.10240086,-0.14800134,-0.36128047,-0.5202781,-0.6217959,-0.67630297,-0.69890374,-0.704456,-0.70410186,-0.70334417,-0.7049022,-0.70849115,-0.7115994,-0.71349514,-0.71144956,-0.68981254,-0.6201382,-0.47489807,-0.23434834,0.10627413,0.5239345,0.9689861,1.3758279,1.6812133,1.8508658,1.8869402,1.8133944,1.6615831,1.4593782,1.2226559,0.9560732,0.66231376,0.34864095,0.02831792,-0.27970782,-0.5531865,-0.77096635,-0.91927475,-0.9985939,-1.026595,-1.0290742,-1.0260612,-1.0288558,-1.0432051,-1.0696938
-0.29816064,-0.46276665,-0.578092,-0.64520675,-0.67212754,-0.6700993,-0.6549903,-0.6425471,-0.6395132,-0.64478606,-0.6540215,-0.66263837,-0.6710028,-0.6839714,-0.7058173,-0.7377124,-0.7752723,-0.808538,-0.82076263,-0.786127,-0.6742979,-0.46037307,-0.13441558,0.29037023,0.770389,1.237689,1.6224272,1.8731563,1.9675964,1.9149534,1.7473631,1.5054485,1.2243911,0.9265902,0.6246643,0.3294239,0.055485502,-0.18131028,-0.37051493,-0.5081,-0.59459585,-0.6382813,-0.6552415,-0.66078246,-0.66530126,-0.67436916,-0.6882805,-0.70356077,-0.7183148,-0.7336838,-0.7486344,-0.7604316,-0.76914984,-0.7794406,-0.79366165,-0.8042829,-0.79530764,-0.74181545,-0.6144577,-0.3875832,-0.045537036,0.39602643,0.88130134,1.3378075,1.6958567,1.9060972,1.9568782,1.8658577,1.6645684,1.3910506,1.0820061,0.7663956,0.4611038,0.17417744,-0.08586357,-0.30926713,-0.48614928,-0.6078315,-0.675081,-0.7008077,-0.7040737,-0.70036864,-0.6968944,-0.69681257,-0.7011483,-0.70881766,-0.7170583,-0.72314197,-0.727371,-0.73260987,-0.7408778,-0.7527516,-0.7655183,-0.7663666,-0.72989947,-0.624125,-0.42173687,-0.10924906,0.30546954,0.78310186,1.2520925,1.6340263,1.8753966,1.9547769,1.881805,1.6903602,1.4201921,1.1072038,0.78096247,0.4638094,0.17123972,-0.08606577,-0.29954478,-0.4618176,-0.57093436,-0.63601655,-0.6668915,-0.6705394,-0.6601992,-0.65103364,-0.6518041,-0.6617707,-0.6737071,-0.6815168,-0.6840866,-0.68421686,-0.6859366,-0.6938444,-0.71061623,-0.73016363,-0.73689204,-0.70879036,-0.6179588,-0.43682498,-0.1498044,0.23540156,0.68345255,1.1363741,1.5229174,1.7807286,1.8791704,1.8238063,1.645075,1.3811331,1.070477,0.7461379,0.42909202,0.1309229,-0.139597,-0.3715767,-0.55260265,-0.67313147,-0.732076,-0.7394556,-0.71277726,-0.6734455,-0.6395607,-0.6188993,-0.6103787,-0.6082411,-0.6069807,-0.6052878,-0.6040532,-0.6040074,-0.6078659,-0.61832833,-0.6327951,-0.6418658,-0.627327,-0.56092316,-0.40958267,-0.14660801,0.23302779,0.7010696,1.1948156,1.6330142,1.9460006,2.095229,2.07787,1.923213,1.6763784,1.3800907,1.0637094,0.7415508,0.42112783,0.113276586,-0.16614342,-0.40279287,-0.58988667,-0.72771436,-0.81875753,-0.8652518,-0.87451077,-0.8598795,-0.83128494,-0.793602,-0.74930465,-0.69982475,-0.6499413,-0.60651225,-0.57767385,-0.5705913,-0.5828181,-0.6030186,-0.6152713,-0.5988692,-0.5281824,-0.37548855,-0.12252313,0.22590297,0.6351503,1.0472168,1.3970115,1.6296237,1.719525,1.6724291,1.5128419,1.2776952,1.005353,0.722283,0.44156182,0.16480297,-0.109881766,-0.36959156,-0.58587927,-0.7365368,-0.8168713,-0.8375513,-0.8193696,-0.7834872,-0.746953,-0.7226617,-0.7178053,-0.73288643,-0.76670533,-0.8195106,-0.88783956,-0.9647681,-1.0403413,-1.1049777,-1.154768,-1.1811173,-1.1657661,-1.0825628,-0.9003852,-0.5989696,-0.18006295,0.33014315,0.8819327,1.4069176,1.830326,2.0988455,2.1981034,2.1455882,1.9772968,1.7341557,1.4486998,1.1403853,0.8237399,0.51496905,0.23514314,0.00914824,-0.14730918,-0.23645006,-0.2732642,-0.27540702,-0.25883982,-0.24030307,-0.23485327,-0.25099295,-0.28975347,-0.34640467,-0.41671208,-0.5004845,-0.59783435,-0.7052622,-0.8156102,-0.9204295,-1.0084268,-1.0581547,-1.0363479,-0.9077201,-0.64680165,-0.24939154,0.2577749,0.817836,1.3526938,1.7806196,2.0434432,2.1237447,2.039016,1.8260201,1.5277625,1.1821845,0.8179625,0.45805466,0.1212782,-0.17579284,-0.41836533,-0.5961051,-0.7077143,-0.76695687,-0.79470646,-0.8070121,-0.81526715,-0.82593274,-0.8415099,-0.86345583,-0.891443,-0.9246093,-0.9619921,-1.0007842,-1.0400534,-1.0803443,-1.1169858,-1.1423165,-1.1434734,-1.0942751,-0.95920223,-0.70885575,-0.33703294,0.13585359,0.66376054,1.1758776,1.5953206,1.8647118,1.9599811,1.8912348,1.6935587,1.4139575,1.0965769,0.7714005,0.45596182,0.1633005,-0.09229751,-0.29650715,-0.44336137,-0.5340878,-0.5732165,-0.5740362,-0.55697924,-0.53927535,-0.5292356,-0.5293001,-0.53695095,-0.5441942,-0.5451323,-0.5377282,-0.52146024,-0.49901426,-0.4742986,-0.44778952,-0.41549,-0.36725873,-0.2788066,-0.114783265,0.15339991,0.53195846,0.99702096,1.4945288,1.9462531,2.2756836,2.4366794,2.417245,2.2358632,1.9340124,1.5571027,1.1415442,0.71472293,0.29996166,-0.08221558,-0.41758943,-0.69636655,-0.9091487,-1.0522386,-1.1342324,-1.1700376,-1.1747315,-1.164783,-1.1537778,-1.1474094,-1.1436689,-1.1380137,-1.1271135,-1.1088632,-1.0855073,-1.062373,-1.0436723,-1.0290931,-1.0110384,-0.9735456,-0.88973695,-0.72752964,-0.46152586,-0.08666649,0.37028232,0.8579146,1.3154964,1.683837,1.917693,1.9968383,1.9307184,1.7522522,1.499697,1.201117,0.880166,0.5632496,0.2696548,0.008517562,-0.21230268,-0.38336137,-0.4994715,-0.5651624,-0.593112,-0.5998809,-0.6023134,-0.61273605,-0.63358784,-0.6583245,-0.67860854,-0.6899758,-0.69317424,-0.6932773,-0.6976699,-0.7116543,-0.73437685,-0.7569454,-0.761656,-0.72285384,-0.60887873,-0.3904441,-0.056010395,0.37869772,0.87040126,1.3528895,1.7525724,2.011872,2.1074555,2.0532312,1.8843507,1.6387355,1.3461192,1.025955,0.6936364,0.36307305,0.048501402,-0.23305532,-0.46610832,-0.64299107,-0.765495,-0.8435897,-0.8922681,-0.9238169,-0.94485956,-0.9587366,-0.9659233,-0.9682472,-0.9675146,-0.960837,-0.94635624,-0.9264281,-0.9038931,-0.880202,-0.85410124,-0.8164455,-0.7455485,-0.6112973,-0.3859552,-0.057025455,0.36714438,0.8559868,1.3513923,1.7783699,2.0736382,2.205735,2.176476,2.0117326,1.7507297,1.4337535,1.0928315,0.7497794,0.41818613,0.10711055,-0.17452101,-0.41381547,-0.5973045,-0.7204213,-0.7881848,-0.81203204,-0.8107316,-0.8045147,-0.80342615,-0.80672467,-0.81049895,-0.81257975,-0.8137512,-0.81375337,-0.8120472,-0.8114879,-0.81459314
2.1225736,2.0821726,1.9542044,1.766001,1.5350724,1.2707802,0.98561096,0.69173753,0.3994447,0.12347354,-0.119195506,-0.31676686,-0.4668533,-0.57291055,-0.64341414,-0.6910804,-0.7264464,-0.75516224,-0.77948445,-0.80173445,-0.82330203,-0.84466225,-0.86624956,-0.8860645,-0.9032169,-0.92002004,-0.9377739,-0.9535199,-0.9659464,-0.97994465,-0.99556583,-1.0042163,-0.9937739,-0.9484368,-0.8471942,-0.6662394,-0.389432,-0.015486701,0.43516988,0.9158298,1.3671685,1.7346932,1.9819504,2.0977664,2.0937192,1.99413,1.8249279,1.6101339,1.3683407,1.1074669,0.82999957,0.5448503,0.26852924,0.014720475,-0.20909266,-0.39692578,-0.5435268,-0.6458739,-0.7053347,-0.73378426,-0.7502873,-0.76579976,-0.7829196,-0.8011792,-0.8177062,-0.83463174,-0.8548254,-0.8759388,-0.8958339,-0.91225207,-0.923014,-0.92901784,-0.9337579,-0.9416558,-0.95320106,-0.9592242,-0.94075096,-0.8715049,-0.724747,-0.48080015,-0.13263127,0.30436534,0.78930795,1.2607687,1.6548895,1.9288471,2.0660806,2.073454,1.9765683,1.8101223,1.6012434,1.3614062,1.0978934,0.82113737,0.5428774,0.27422744,0.026866056,-0.18762065,-0.36385384,-0.50178486,-0.60260415,-0.67022383,-0.7142797,-0.745801,-0.77065617,-0.7916111,-0.80806214,-0.8177736,-0.8225977,-0.82804036,-0.8400343,-0.85813487,-0.8772596,-0.89567226,-0.9140838,-0.93191934,-0.9471877,-0.9585446,-0.9616091,-0.942366,-0.8781175,-0.74622387,-0.5290282,-0.21467926,0.1909925,0.6545723,1.122994,1.535507,1.8416609,2.0204303,2.0782058,2.0360146,1.9190066,1.7472324,1.5328196,1.2828501,1.004976,0.7115651,0.41771963,0.14103717,-0.101502195,-0.29948193,-0.44816643,-0.54974335,-0.61333764,-0.6493855,-0.6659522,-0.6722203,-0.6804724,-0.6983616,-0.72470087,-0.75358474,-0.7818735,-0.8081036,-0.8287972,-0.84348017,-0.852333,-0.8573684,-0.86427706,-0.875667,-0.89176756,-0.9086371,-0.91592133,-0.90054035,-0.843881,-0.72054046,-0.5122399,-0.22089458,0.13628402,0.5323085,0.9296218,1.2833534,1.5500928,1.7037995,1.7436231,1.6875296,1.5618858,1.389588,1.1880531,0.9688426,0.73714167,0.49981892,0.26741636,0.05348234,-0.13007586,-0.27869684,-0.39122862,-0.47072443,-0.52313364,-0.5535436,-0.56999123,-0.5818307,-0.59241176,-0.6009041,-0.6102981,-0.6250937,-0.64752454,-0.6744854,-0.69701636,-0.7132126,-0.72692984,-0.73895806,-0.7523934,-0.7689354,-0.7837922,-0.79169345,-0.78632367,-0.7560581,-0.6835417,-0.5470135,-0.32447404,-0.0037903816,0.40236372,0.8528858,1.2879145,1.6472832,1.890139,2.0002904,1.9864864,1.8749257,1.6934394,1.4642758,1.2042378,0.9261269,0.6391144,0.3538649,0.08573786,-0.15135852,-0.3482783,-0.50040793,-0.6074729,-0.6727247,-0.7036972,-0.71503955,-0.72388375,-0.73736167,-0.75341195,-0.7707434,-0.79008514,-0.81099415,-0.8315982,-0.8496738,-0.8650544,-0.8808322,-0.9002139,-0.92378145,-0.94735795,-0.96325666,-0.96710664,-0.9558577,-0.91545147,-0.8189439,-0.63864416,-0.3574123,0.019405559,0.46380022,0.93565196,1.378544,1.7316515,1.9588776,2.0544941,2.0326188,1.9174299,1.7371597,1.5128177,1.2541934,0.9718921,0.6811481,0.3991678,0.14021665,-0.08748097,-0.27714437,-0.4241001,-0.5294837,-0.60034627,-0.6469628,-0.68043214,-0.7087142,-0.7334174,-0.7544217,-0.77300173,-0.7921747,-0.8157489,-0.84480864,-0.8761949,-0.90519035,-0.9294013,-0.94837534,-0.9628745,-0.97338575,-0.97791797,-0.9713851,-0.9432347,-0.8756308,-0.7453001,-0.5289031,-0.2126499,0.19547036,0.66329974,1.1420256,1.573847,1.9050915,2.1001768,2.1487174,2.0667434,1.8908029,1.6613653,1.405425,1.1346058,0.8529588,0.564074,0.2763806,0.0061946106,-0.22795728,-0.416395,-0.55808806,-0.6560387,-0.71853876,-0.7549817,-0.7709811,-0.77479213,-0.7781818,-0.7885146,-0.8078855,-0.8354743,-0.8687631,-0.9044626,-0.93687725,-0.95823646,-0.9636035,-0.9553302,-0.9404092,-0.92868084,-0.9274668,-0.9306771,-0.91852367,-0.8639417,-0.7362807,-0.50881284,-0.17218402,0.26066688,0.7542664,1.25139,1.6874288,2.0090406,2.1890562,2.2298675,2.1511476,1.9798934,1.7433531,1.4628942,1.1561875,0.84036475,0.5308129,0.24182053,-0.015040247,-0.23395734,-0.4124704,-0.55162686,-0.65706676,-0.73483694,-0.78944063,-0.8253126,-0.8465589,-0.8565028,-0.8595344,-0.8596987,-0.856886,-0.8511332,-0.8458464,-0.84641665,-0.85851836,-0.8810791,-0.90510124,-0.9206999,-0.9252989,-0.9209679,-0.90463936,-0.8621205,-0.76673657,-0.59322006,-0.3317778,0.006470314,0.3926632,0.7928859,1.169128,1.480106,1.6966742,1.8104774,1.8261907,1.7572356,1.6261762,1.4531693,1.247442,1.0129148,0.7539277,0.48189968,0.219938,-0.009100164,-0.19551706,-0.33868855,-0.43995222,-0.5045782,-0.54434013,-0.5720175,-0.593245,-0.61002797,-0.6287762,-0.6522727,-0.6744492,-0.69220376,-0.70565313,-0.71212053,-0.7144169,-0.7193075,-0.7286624,-0.743998,-0.7666563,-0.79323715,-0.8164178,-0.828093,-0.817303,-0.7658157,-0.6551658,-0.47235274,-0.2104516,0.12415769,0.5063187,0.89460605,1.2417299,1.5091771,1.6743352,1.7325661,1.6962454,1.585712,1.4231886,1.2294677,1.0167707,0.79001135,0.55558765,0.3230995,0.10329798,-0.09330018,-0.25567517,-0.37539783,-0.45618457,-0.5110325,-0.5494871,-0.5749375,-0.59085405,-0.60297287,-0.6143601,-0.626598,-0.642146,-0.66105056,-0.6826032,-0.70471823,-0.7211785,-0.7266498,-0.7236254,-0.7208033,-0.72339195,-0.7305994,-0.7397358,-0.7480534,-0.7526828,-0.74686825,-0.71513206,-0.6342295,-0.48303947,-0.25256842,0.052943878,0.4174055,0.8092142,1.1809285,1.4833348,1.681097,1.7616665,1.7382704,1.6372997,1.4833058,1.2952473,1.0848919,0.85948956,0.6275337,0.39662352,0.17396553,-0.028903436,-0.2010898,-0.33623102,-0.4312386,-0.4896516,-0.5212938,-0.5368181,-0.54741293,-0.56208515,-0.5822028,-0.6049539,-0.62697583,-0.6464193
-0.5756997,-0.24929635,0.14625445,0.57028747,0.9751544,1.316791,1.560672,1.6877617,1.698296,1.6102438,1.4482486,1.2309053,0.97438073,0.6949492,0.41011095,0.1435236,-0.08466148,-0.26737824,-0.40741646,-0.5141486,-0.5996519,-0.6717304,-0.7371336,-0.8019537,-0.8627075,-0.9140296,-0.9584196,-0.9995445,-1.0372019,-1.0663823,-1.0774676,-1.0552047,-0.9762635,-0.81895506,-0.5764661,-0.260551,0.10057907,0.46833196,0.8012984,1.06393,1.2357205,1.3118635,1.2989739,1.211596,1.0664592,0.8784281,0.6615424,0.43352005,0.21545328,0.023534635,-0.13465677,-0.2571279,-0.345339,-0.4062541,-0.45239046,-0.4969383,-0.54825824,-0.60569453,-0.66301835,-0.7153831,-0.7632156,-0.8104363,-0.85601646,-0.891082,-0.9019321,-0.8691602,-0.7677848,-0.57781345,-0.2979913,0.051290777,0.43289176,0.80048674,1.1106766,1.3333637,1.4532714,1.4700948,1.3986154,1.2586578,1.06485,0.8277056,0.5612094,0.28816557,0.034210294,-0.18325827,-0.3576151,-0.49155974,-0.59414923,-0.6720179,-0.7290839,-0.77313304,-0.81108004,-0.84492105,-0.87255925,-0.8896104,-0.8977931,-0.90504295,-0.91583914,-0.9249031,-0.9154455,-0.8644462,-0.74625874,-0.53542984,-0.21949774,0.19325139,0.6670854,1.136012,1.5288733,1.7981349,1.9274925,1.9245108,1.8098792,1.6084431,1.342716,1.0325794,0.6981085,0.36259404,0.050478846,-0.21828677,-0.42927042,-0.57933205,-0.67855823,-0.74301696,-0.79124933,-0.83589816,-0.8791099,-0.9179145,-0.94803506,-0.97107863,-0.99256057,-1.0132371,-1.033458,-1.0520326,-1.0557679,-1.0203589,-0.91717106,-0.71853423,-0.40988117,-0.001477496,0.4713253,0.9544613,1.385961,1.7120271,1.9035332,1.9591624,1.8953081,1.7363122,1.5068419,1.2294451,0.9278858,0.62716514,0.3444905,0.08616737,-0.14138256,-0.32903054,-0.47479177,-0.5884074,-0.6848266,-0.77387327,-0.85755616,-0.9343662,-1.0026141,-1.0612112,-1.1108102,-1.1520777,-1.1840075,-1.2052921,-1.2095006,-1.1824275,-1.1026496,-0.9427482,-0.68292385,-0.32933983,0.07798893,0.48300394,0.8376516,1.1070436,1.2720163,1.3290298,1.2867697,1.1652901,0.9892022,0.7793499,0.55095243,0.31850934,0.09944578,-0.0882144,-0.23192583,-0.3313294,-0.39518115,-0.43519357,-0.4643389,-0.4923528,-0.523231,-0.5573068,-0.5927933,-0.628887,-0.66716623,-0.7074704,-0.7471232,-0.78378683,-0.8101081,-0.8080915,-0.7550209,-0.6267588,-0.402586,-0.07478537,0.34210673,0.80086845,1.2338411,1.5791637,1.798787,1.8839977,1.846907,1.7099024,1.4963928,1.2282643,0.92815644,0.61768717,0.318872,0.052800063,-0.16709866,-0.33816212,-0.46667734,-0.5639556,-0.64278436,-0.7118719,-0.77359116,-0.83029574,-0.88517857,-0.93909943,-0.9923008,-1.0445709,-1.0953104,-1.140037,-1.1661118,-1.1535609,-1.0778848,-0.91646695,-0.6559137,-0.30004925,0.12506726,0.57428527,0.99359685,1.3347026,1.5662196,1.676201,1.6700269,1.5648252,1.3804251,1.1363056,0.8513767,0.54529256,0.24437287,-0.024538325,-0.24633338,-0.4173768,-0.54137844,-0.6300799,-0.7009102,-0.76499486,-0.8264388,-0.89082557,-0.95911765,-1.024439,-1.0811797,-1.1286939,-1.1657686,-1.1856259,-1.17472,-1.1138552,-0.9812281,-0.7563951,-0.429534,-0.010968734,0.4677148,0.9550747,1.387323,1.709997,1.8962525,1.9482659,1.8870392,1.7375284,1.5195428,1.2468213,0.93236464,0.5993686,0.2786585,-0.0046536727,-0.23507673,-0.4082068,-0.5325656,-0.62414503,-0.696963,-0.75909096,-0.8171261,-0.8769289,-0.9382655,-0.99754316,-1.0520707,-1.0990225,-1.1366174,-1.1626737,-1.165306,-1.1170574,-0.98584867,-0.7515712,-0.41242766,0.013261287,0.4856574,0.95037323,1.3501619,1.638415,1.7945722,1.8268342,1.7577399,1.6070468,1.3883628,1.1150389,0.8048073,0.47903576,0.16223995,-0.11897077,-0.34678185,-0.5180314,-0.63740885,-0.71482223,-0.7650807,-0.8017126,-0.8332202,-0.8651388,-0.899145,-0.93411374,-0.9716039,-1.0123569,-1.0520434,-1.0824752,-1.0874276,-1.0421028,-0.9210387,-0.70339286,-0.38190883,0.027194705,0.48458236,0.932489,1.311394,1.5805466,1.7231468,1.7467289,1.6738764,1.5233552,1.307972,1.0416125,0.7446487,0.4438397,0.16052641,-0.09055378,-0.2955033,-0.44921902,-0.5583971,-0.637311,-0.70157444,-0.75892717,-0.81150454,-0.8621401,-0.9130985,-0.9643452,-1.0140324,-1.0602115,-1.1022434,-1.134126,-1.1382993,-1.0905826,-0.96297956,-0.7304968,-0.38649297,0.050351467,0.535781,1.0094802,1.4123842,1.6994648,1.8502781,1.8691105,1.7744823,1.58831,1.3290701,1.0162445,0.67617863,0.3384503,0.02891904,-0.2359515,-0.44907823,-0.6097536,-0.7232807,-0.7997304,-0.8511683,-0.89012325,-0.92571497,-0.9615687,-0.9975201,-1.0301541,-1.0553428,-1.0724949,-1.0847777,-1.0918032,-1.0775492,-1.0094303,-0.85183406,-0.58191085,-0.20099792,0.2633959,0.76319677,1.2376275,1.628864,1.8975043,2.026185,2.0200255,1.9020797,1.6984724,1.4287493,1.111294,0.77036405,0.43393382,0.12766966,-0.13004635,-0.33251128,-0.48398316,-0.5940153,-0.6760727,-0.7469716,-0.81925005,-0.89614636,-0.9736481,-1.0458809,-1.110683,-1.1701055,-1.2256067,-1.2714943,-1.295279,-1.2782512,-1.1923333,-1.006386,-0.7023376,-0.2898809,0.19273542,0.68928784,1.1386173,1.4915702,1.7225282,1.8274282,1.8163794,1.7064474,1.5155166,1.2605467,0.9600443,0.6359587,0.31445017,0.021231469,-0.22703011,-0.42224357,-0.5622071,-0.655584,-0.71964234,-0.770353,-0.8179829,-0.86733115,-0.9202597,-0.9766968,-1.0331411,-1.0863292,-1.1364126,-1.1783452,-1.1935606,-1.1536126,-1.0290473,-0.80009985,-0.4629133,-0.032763273,0.45150325,0.93292475,1.3509979,1.6595002,1.8407816,1.8995836,1.8503375,1.7110939,1.497919,1.2255726,0.9112495,0.5771619,0.2520463,-0.038489558,-0.27901146,-0.46363628,-0.5975787,-0.69177896,-0.75979275,-0.8161715,-0.868884,-0.9196138,-0.9669383
-0.58717716,-0.26781204,0.14537032,0.61294794,1.0777537,1.4743869,1.7480189,1.8725009,1.8502345,1.7061434,1.477639,1.1998525,0.8981583,0.5876712,0.2800435,-0.009348384,-0.26418886,-0.47181225,-0.62311447,-0.7143316,-0.7542383,-0.76269126,-0.75947344,-0.75704944,-0.76059204,-0.77158713,-0.7874767,-0.8009751,-0.80751914,-0.80973583,-0.81210256,-0.8172524,-0.8257288,-0.8372682,-0.8485099,-0.8459625,-0.8053272,-0.69603246,-0.49021763,-0.17656548,0.23107931,0.69482046,1.1600276,1.5643814,1.8520577,1.9903047,1.9764853,1.8332381,1.5958292,1.2993022,0.97200114,0.6373875,0.31458813,0.017722443,-0.2367074,-0.43317005,-0.5696268,-0.6545602,-0.6998389,-0.7193183,-0.7253243,-0.72707295,-0.7327587,-0.7457537,-0.761371,-0.7719359,-0.7742691,-0.77379024,-0.7797435,-0.7965616,-0.819677,-0.83560294,-0.8255502,-0.7685188,-0.64028,-0.4164704,-0.08614928,0.3349262,0.8013904,1.248256,1.6129199,1.8542421,1.9573544,1.9268694,1.7811252,1.550164,1.2630906,0.9415697,0.6059081,0.27722204,-0.022019343,-0.27354524,-0.47089857,-0.6176645,-0.72140735,-0.78843534,-0.82742953,-0.85197705,-0.87194926,-0.89081675,-0.9099675,-0.9301294,-0.95057964,-0.9678042,-0.97947997,-0.9903814,-1.0050598,-1.0202879,-1.0293809,-1.020795,-0.9752303,-0.86749315,-0.67032546,-0.36985508,0.022720395,0.47616217,0.9430246,1.3615628,1.6736552,1.8459903,1.8751163,1.780228,1.590102,1.3355253,1.0457755,0.74253356,0.44095352,0.15363018,-0.10794989,-0.3309825,-0.5039774,-0.6214855,-0.6876489,-0.7168399,-0.7280146,-0.73725635,-0.7512492,-0.768127,-0.78433913,-0.79790455,-0.8108466,-0.82835066,-0.85106885,-0.87438524,-0.89339757,-0.90190405,-0.88586855,-0.8194339,-0.67306024,-0.42513198,-0.0712167,0.3675466,0.84478647,1.2979734,1.6652514,1.9041165,2.0006046,1.9652334,1.8221542,1.601631,1.331045,1.030078,0.714857,0.40019214,0.101296425,-0.16639705,-0.3884493,-0.55610216,-0.6712558,-0.743569,-0.7870719,-0.8166061,-0.84443104,-0.8754072,-0.90622103,-0.9315969,-0.9461888,-0.94972694,-0.9482637,-0.94642925,-0.94934875,-0.960325,-0.97424114,-0.9799152,-0.95719093,-0.87631726,-0.70958483,-0.439895,-0.06452133,0.39647663,0.8958601,1.3635107,1.727388,1.9442892,2.006228,1.9323184,1.7572091,1.5134629,1.2248244,0.9097104,0.58665687,0.2745943,-0.010562227,-0.25867105,-0.46475336,-0.62170935,-0.72542036,-0.78461635,-0.8137722,-0.82548845,-0.8304568,-0.83596605,-0.84422755,-0.85379905,-0.8635864,-0.8750909,-0.88954604,-0.9061701,-0.92172396,-0.928132,-0.91241115,-0.8561756,-0.73405,-0.5220293,-0.20980635,0.19326779,0.6526137,1.1083605,1.4920694,1.7524582,1.8678555,1.843344,1.7049357,1.4862437,1.2151499,0.91399753,0.6023347,0.2974266,0.013901707,-0.23542954,-0.43477947,-0.5728373,-0.65462977,-0.69717467,-0.71983224,-0.736923,-0.7548894,-0.7744665,-0.7935516,-0.810336,-0.82356095,-0.8333638,-0.84284943,-0.8533185,-0.86269933,-0.87167674,-0.8811761,-0.8838479,-0.86201596,-0.789176,-0.63666284,-0.38641784,-0.04053097,0.38273272,0.8498721,1.3005314,1.6645248,1.8946686,1.9722357,1.9058853,1.7230172,1.4561694,1.1414018,0.8098444,0.48225358,0.17740639,-0.08935876,-0.31153578,-0.48600298,-0.6113495,-0.69224256,-0.7378184,-0.75876284,-0.7675435,-0.77606463,-0.7911692,-0.81147677,-0.8306878,-0.8442756,-0.8514848,-0.8567166,-0.8664056,-0.8826723,-0.897826,-0.89234966,-0.8437837,-0.7279874,-0.5181038,-0.20121169,0.21029785,0.67768353,1.1397755,1.5304132,1.7986653,1.9180769,1.8886458,1.7363743,1.4982145,1.2052606,0.88507545,0.5608075,0.24693136,-0.042597525,-0.29255173,-0.49184525,-0.63524914,-0.72588503,-0.77456737,-0.7955092,-0.8029128,-0.80907786,-0.82060623,-0.83543843,-0.84865874,-0.8570793,-0.85928774,-0.85824996,-0.85840887,-0.86189604,-0.86957955,-0.87801003,-0.8716371,-0.82154405,-0.69355965,-0.4609567,-0.11913891,0.3091803,0.7788921,1.2279718,1.5924364,1.8281244,1.9204022,1.8779804,1.7258749,1.4984527,1.2261201,0.92833245,0.6173801,0.30660164,0.01338284,-0.245565,-0.45673946,-0.6116439,-0.7121259,-0.77053064,-0.80187744,-0.8180567,-0.8297642,-0.8442818,-0.8618453,-0.87844914,-0.88903886,-0.89271265,-0.89326125,-0.8943464,-0.89756936,-0.89982146,-0.8893545,-0.84489346,-0.74088055,-0.55401134,-0.26662594,0.121655464,0.58029133,1.0525908,1.4706314,1.7772522,1.9434683,1.9680196,1.8724699,1.687934,1.4432061,1.1621653,0.86063915,0.55068547,0.24767333,-0.029260283,-0.263029,-0.4457323,-0.57906836,-0.6696868,-0.7257591,-0.75917786,-0.7826298,-0.80310583,-0.8246391,-0.8476808,-0.869261,-0.88864243,-0.9074057,-0.9287702,-0.9539687,-0.98080343,-1.0079646,-1.0323695,-1.0414048,-1.0093507,-0.9030362,-0.6934235,-0.3700709,0.047060106,0.51612866,0.9864246,1.3999028,1.7020079,1.8604301,1.8736168,1.7643027,1.5624403,1.2957994,0.9924327,0.6778998,0.37058005,0.08342752,-0.17310074,-0.38679472,-0.54689485,-0.652685,-0.7121463,-0.7385964,-0.7501467,-0.7615427,-0.77545154,-0.7894678,-0.80344445,-0.81464875,-0.8204117,-0.8238501,-0.82971334,-0.8386476,-0.8455532,-0.84005344,-0.80393636,-0.7090976,-0.52349,-0.22606692,0.1779792,0.6499287,1.1244979,1.5327481,1.8213282,1.9623494,1.9559712,1.8219625,1.589593,1.2885629,0.94754714,0.59495366,0.25489944,-0.05118038,-0.30622607,-0.5024096,-0.63973397,-0.7232488,-0.762382,-0.7699694,-0.7589237,-0.7427019,-0.7326867,-0.73219645,-0.7404508,-0.7547711,-0.7715007,-0.7888188,-0.8044318,-0.8172557,-0.82902914,-0.8392259,-0.83714676,-0.8001423,-0.70107734,-0.5159245,-0.23141326,0.14714122,0.58956665,1.0413146,1.4364157,1.7163198,1.8477396,1.8294834,1.6857169,1.4513925,1.1598544,0.83846587,0.50793606,0.18607901,-0.10920528,-0.36202627,-0.56115943,-0.7014473
-0.6592993,-0.69137716,-0.72293633,-0.7535694,-0.7803518,-0.79820305,-0.80512863,-0.8066752,-0.8113747,-0.8247138,-0.84396636,-0.8598156,-0.861797,-0.8348595,-0.7546405,-0.5926581,-0.33049884,0.030131198,0.46276858,0.91657925,1.3331754,1.6627055,1.8711833,1.9482429,1.9078193,1.7778628,1.5861957,1.3513098,1.0828743,0.7907737,0.4921038,0.20973462,-0.0347703,-0.22989853,-0.3753582,-0.47648737,-0.54125476,-0.5813407,-0.60971487,-0.63462436,-0.6606434,-0.6925944,-0.7327918,-0.7746782,-0.8081897,-0.8297434,-0.8414207,-0.8491829,-0.85711294,-0.8652194,-0.87390393,-0.8830584,-0.8888797,-0.8771084,-0.82535744,-0.70923656,-0.50515187,-0.20257178,0.18926458,0.64050573,1.1002866,1.5077364,1.810461,1.9823171,2.0257535,1.9583865,1.804947,1.5932796,1.3449814,1.0722302,0.78360707,0.48925942,0.2067217,-0.04244448,-0.24432792,-0.39424747,-0.4963834,-0.5632158,-0.6105281,-0.65061563,-0.6883662,-0.72559416,-0.76298416,-0.7998325,-0.83407396,-0.8619796,-0.8826138,-0.8988145,-0.91324776,-0.9274259,-0.9442918,-0.96578354,-0.984864,-0.98754203,-0.9556483,-0.8627777,-0.68107456,-0.39362827,-0.0039752387,0.45628834,0.93343097,1.367067,1.7054597,1.9192352,2.004357,1.976105,1.860963,1.6837324,1.460292,1.2010299,0.9168978,0.62166166,0.3325876,0.06893017,-0.15638994,-0.33650714,-0.46742186,-0.5529553,-0.6040281,-0.6342827,-0.65761906,-0.6849936,-0.72053325,-0.76172495,-0.8032747,-0.840233,-0.86879283,-0.8856435,-0.89100087,-0.8917248,-0.89738125,-0.9117732,-0.92915314,-0.93846726,-0.92615193,-0.87235194,-0.74985194,-0.53592384,-0.22374997,0.17667252,0.63418454,1.0954027,1.4984328,1.7923222,1.9542961,1.990378,1.9247853,1.788593,1.6047035,1.3827021,1.1263961,0.842788,0.5452185,0.25265568,-0.012693999,-0.23141348,-0.393603,-0.49826485,-0.5541077,-0.5816246,-0.6017791,-0.62617123,-0.6608379,-0.7068495,-0.7573614,-0.8028031,-0.8374925,-0.86031115,-0.87210196,-0.8765278,-0.8801662,-0.88798517,-0.9009213,-0.91520643,-0.9236935,-0.9143695,-0.8676492,-0.76134247,-0.5733146,-0.2838837,0.107066266,0.56729287,1.040433,1.4630154,1.7823725,1.9696772,2.0262349,1.9763863,1.8499564,1.6699711,1.4471642,1.1885147,0.9050258,0.6074037,0.3110941,0.037584793,-0.19242187,-0.36493978,-0.48073775,-0.5516463,-0.5944215,-0.62775326,-0.6628272,-0.70187515,-0.74382263,-0.78590816,-0.82404816,-0.8537648,-0.8727841,-0.882212,-0.88659966,-0.89146185,-0.8978291,-0.9046784,-0.9124892,-0.91720825,-0.9044812,-0.8500137,-0.7251283,-0.50505495,-0.18074025,0.22768961,0.67735153,1.1183637,1.4970665,1.7687355,1.9111989,1.9273757,1.8429741,1.6873326,1.4810553,1.2371466,0.96483564,0.6767318,0.39018872,0.12369132,-0.10884284,-0.29668024,-0.4313436,-0.5153249,-0.56127274,-0.58596385,-0.60775197,-0.63718003,-0.6734084,-0.71097094,-0.74356395,-0.7693442,-0.7898842,-0.8058371,-0.8194266,-0.8313577,-0.842468,-0.85614383,-0.87203807,-0.8862183,-0.89038986,-0.86912555,-0.80134463,-0.6620678,-0.4300726,-0.09861679,0.31791705,0.7790651,1.2250484,1.5952661,1.8454789,1.963378,1.964139,1.8682442,1.6964493,1.4713655,1.2110996,0.9266093,0.6279328,0.3337212,0.068751015,-0.14901628,-0.31420997,-0.43128753,-0.5105419,-0.5625353,-0.59522,-0.61828685,-0.6433868,-0.6764461,-0.7147093,-0.75207514,-0.78477967,-0.810419,-0.82871175,-0.84284884,-0.85374784,-0.8630288,-0.87556577,-0.8905565,-0.8995038,-0.88931763,-0.840717,-0.7270589,-0.523136,-0.21803015,0.17822634,0.63188815,1.0895696,1.4908848,1.7853031,1.9476362,1.9819468,1.9134707,1.7706451,1.5724609,1.3322836,1.0607274,0.76688004,0.46516404,0.1772333,-0.075388186,-0.2787493,-0.42735696,-0.52640647,-0.5900644,-0.6318367,-0.66202015,-0.68866485,-0.7165025,-0.7490979,-0.78716636,-0.8256362,-0.8580979,-0.8811836,-0.89537007,-0.9062417,-0.91936725,-0.9335694,-0.9467844,-0.95807844,-0.96089303,-0.93965244,-0.8681496,-0.71725434,-0.4670491,-0.113601126,0.32426524,0.80186266,1.2562579,1.6276892,1.8796345,2.0008755,2.002315,1.9114691,1.7563121,1.5550674,1.3170626,1.0470446,0.7534748,0.45341757,0.17081493,-0.072272316,-0.26350522,-0.4001466,-0.49090385,-0.55275255,-0.6007857,-0.64404124,-0.68546396,-0.7251797,-0.7634672,-0.8001457,-0.83343214,-0.8596706,-0.87795645,-0.89128155,-0.9033338,-0.9182772,-0.9375222,-0.9574331,-0.9721553,-0.9699956,-0.92636853,-0.81125116,-0.60236204,-0.28981122,0.115733065,0.5780121,1.0445522,1.4579661,1.7695761,1.9527477,2.0048118,1.9435061,1.7992798,1.6014997,1.367794,1.1032791,0.81183565,0.5080341,0.21568026,-0.041832794,-0.24989806,-0.40404716,-0.5067974,-0.5676369,-0.6003047,-0.6185999,-0.6362672,-0.66289634,-0.69965476,-0.74179184,-0.78010625,-0.80572546,-0.8176521,-0.820611,-0.8203723,-0.8201735,-0.82185477,-0.82955474,-0.8458877,-0.8668331,-0.87895447,-0.8608323,-0.7857361,-0.6276787,-0.3715448,-0.014136229,0.42698413,0.9016396,1.3436061,1.6961764,1.9250675,2.022238,2.0033963,1.8998973,1.7394979,1.5353384,1.2934835,1.018595,0.7187578,0.41382128,0.13224213,-0.103699744,-0.28584933,-0.41835678,-0.5118433,-0.57570815,-0.6212505,-0.66207707,-0.70364815,-0.7443779,-0.7809899,-0.8107515,-0.8342549,-0.85217935,-0.8623951,-0.8640695,-0.8617392,-0.85965604,-0.8595207,-0.865863,-0.8782326,-0.88402224,-0.86189353,-0.7845436,-0.62327737,-0.35714018,0.012146065,0.45181853,0.9029076,1.2990303,1.5933902,1.7694633,1.8335376,1.7989573,1.6813306,1.5003567,1.2734548,1.0163246,0.7439031,0.46781966,0.20206267,-0.033104192,-0.2203447,-0.3551309,-0.44422683,-0.49997678,-0.5342076,-0.5571121,-0.5797473,-0.60942507,-0.6457668,-0.68282,-0.7136926,-0.7363611,-0.7558993,-0.7760206,-0.7930959,-0.8034966,-0.8084133,-0.81263345,-0.820241
-0.5531455,-0.6207615,-0.66319805,-0.6878848,-0.7047242,-0.7208059,-0.7379707,-0.7546455,-0.7724369,-0.7930569,-0.8133691,-0.8310756,-0.8466035,-0.8575274,-0.8610907,-0.8603038,-0.86140275,-0.8667784,-0.8697081,-0.8525982,-0.7909086,-0.65976906,-0.44066438,-0.13106759,0.25410885,0.68653387,1.1218685,1.5042881,1.7858214,1.9423159,1.9748774,1.9023702,1.7533232,1.5582874,1.3371651,1.0960013,0.8373289,0.5688033,0.30470172,0.059422206,-0.15647821,-0.33338305,-0.46501616,-0.5552715,-0.61650085,-0.66054285,-0.6962636,-0.7298113,-0.7634302,-0.79562736,-0.8228308,-0.8425805,-0.8538589,-0.8603177,-0.8666107,-0.8717914,-0.8781998,-0.8913405,-0.9094707,-0.9246792,-0.9288864,-0.91174245,-0.8537404,-0.7277206,-0.5122894,-0.20285289,0.1906697,0.64017326,1.0939608,1.4898455,1.7789923,1.9405711,1.9774373,1.9110891,1.7723504,1.5858796,1.3659697,1.1180512,0.8456045,0.5578764,0.271556,0.0019148474,-0.24140848,-0.4472019,-0.6053547,-0.7097176,-0.76315075,-0.7818244,-0.78319484,-0.78166515,-0.7894335,-0.810804,-0.8453237,-0.89133435,-0.94278777,-0.99177283,-1.0325484,-1.0617323,-1.078711,-1.0836147,-1.0742064,-1.0454813,-0.98960924,-0.8956065,-0.7512804,-0.5444921,-0.26212195,0.10124127,0.5293442,0.9821202,1.4045573,1.7433788,1.9627452,2.0539181,2.0342817,1.9331282,1.7789501,1.590972,1.378337,1.1464077,0.8972034,0.6334528,0.3666094,0.11411846,-0.10821015,-0.29088414,-0.4297598,-0.524848,-0.58356684,-0.6203478,-0.65008897,-0.68142265,-0.7142504,-0.7438417,-0.7677341,-0.78567994,-0.798842,-0.81089664,-0.82423526,-0.8377199,-0.8480358,-0.855005,-0.86268926,-0.87286866,-0.8812932,-0.8754442,-0.8336972,-0.72788316,-0.5325224,-0.23635918,0.15041298,0.59104896,1.0280439,1.4032617,1.675143,1.8227035,1.8463794,1.7656894,1.60653,1.3926238,1.1420196,0.8655259,0.57264507,0.2744738,-0.01606075,-0.28530836,-0.5172216,-0.6915199,-0.79636675,-0.83459026,-0.8182255,-0.7683346,-0.70529306,-0.6410922,-0.58522254,-0.544898,-0.52540946,-0.5297857,-0.55309385,-0.58829737,-0.6308357,-0.67673695,-0.72418356,-0.766347,-0.7937959,-0.806825,-0.8068506,-0.7876177,-0.7388825,-0.6431188,-0.47689798,-0.22544946,0.10963243,0.5096837,0.93699443,1.3384063,1.6597146,1.864891,1.9455898,1.9159606,1.8009192,1.6276461,1.4164041,1.1762983,0.91554624,0.6426889,0.36867985,0.11261636,-0.111532286,-0.2996778,-0.45067686,-0.5646144,-0.6414658,-0.68670076,-0.71318716,-0.7308824,-0.7455012,-0.76210064,-0.782058,-0.8046461,-0.8273785,-0.8433951,-0.85012424,-0.85491157,-0.8639988,-0.87473315,-0.88331115,-0.88995713,-0.8903044,-0.86838907,-0.8000709,-0.6637468,-0.4463703,-0.14370924,0.23414281,0.6590386,1.085808,1.4594499,1.7328136,1.8812456,1.9073882,1.8329616,1.6863538,1.4942125,1.2717099,1.0253737,0.7611794,0.48849717,0.22382532,-0.015606069,-0.22175327,-0.39363176,-0.53083843,-0.63190556,-0.69980496,-0.74408805,-0.77310115,-0.79181105,-0.80334884,-0.8068783,-0.80338436,-0.79931915,-0.80016434,-0.8093521,-0.827412,-0.84954923,-0.8719632,-0.8943579,-0.9156403,-0.9321549,-0.93092966,-0.8868512,-0.77488244,-0.57470334,-0.27239758,0.12310998,0.5758731,1.0337892,1.4364251,1.7322803,1.8986785,1.9415733,1.8824013,1.7476264,1.5615286,1.3405809,1.0951055,0.83508956,0.5694232,0.30552357,0.05465213,-0.1694068,-0.3568874,-0.5018034,-0.60272884,-0.66753966,-0.70837384,-0.7346521,-0.75386304,-0.7718446,-0.79036796,-0.8091776,-0.82965136,-0.8502223,-0.8649681,-0.8705177,-0.87232524,-0.88152176,-0.89989084,-0.9186207,-0.92730016,-0.9110288,-0.8488864,-0.7205211,-0.5109202,-0.2115034,0.17116873,0.6059566,1.0414908,1.4201565,1.6973681,1.8535482,1.8935622,1.8361795,1.7042633,1.5230539,1.3119583,1.0809735,0.8354062,0.57873535,0.31938058,0.070243485,-0.15541619,-0.345332,-0.49213973,-0.59391534,-0.6573452,-0.6964162,-0.7243907,-0.75078225,-0.7775457,-0.8022078,-0.8240302,-0.8426096,-0.8570244,-0.8670013,-0.87568545,-0.886135,-0.89689946,-0.9066704,-0.9148473,-0.9182941,-0.90684474,-0.86316645,-0.7659825,-0.5886679,-0.31117457,0.060478136,0.4948365,0.9444825,1.353296,1.6726236,1.8755287,1.9561359,1.9250015,1.8056017,1.6267964,1.4136112,1.1825513,0.94080836,0.6910294,0.43867922,0.19297558,-0.03606365,-0.23763303,-0.40130925,-0.5227937,-0.607195,-0.66328037,-0.69640374,-0.71453476,-0.73119134,-0.75408214,-0.7800687,-0.80359036,-0.8248283,-0.8446732,-0.8603379,-0.8725117,-0.88575053,-0.90310514,-0.922688,-0.93818986,-0.9445586,-0.93497443,-0.8961743,-0.81032485,-0.6557815,-0.41600996,-0.09018975,0.30736595,0.74370277,1.1727301,1.54614,1.8157233,1.9566747,1.9768778,1.8960599,1.7408308,1.5430062,1.3250133,1.0901535,0.8335947,0.56202275,0.2944194,0.046992995,-0.1703529,-0.34825516,-0.48109207,-0.57015765,-0.6250226,-0.65983635,-0.68660605,-0.71201015,-0.73532104,-0.7548901,-0.7734717,-0.7948278,-0.81896734,-0.8428723,-0.8614511,-0.87170094,-0.8795762,-0.88929474,-0.8972741,-0.901621,-0.9045419,-0.90531486,-0.8924141,-0.8431783,-0.7320366,-0.53703314,-0.2444142,0.1375603,0.5749336,1.0216415,1.4248875,1.7315285,1.9108961,1.9647269,1.9133065,1.7844341,1.6050942,1.394091,1.1607177,0.90878433,0.64476305,0.3797818,0.12896171,-0.09171091,-0.27287856,-0.41118017,-0.5083275,-0.57247293,-0.6123094,-0.63756937,-0.6591171,-0.6795968,-0.6990812,-0.72100544,-0.74444056,-0.76724565,-0.7903665,-0.81460476,-0.8381279,-0.8560717,-0.8673002,-0.8781428,-0.89262056,-0.90531224,-0.9056926,-0.88128674,-0.8136059,-0.6774599,-0.45146194,-0.12822436,0.27840096,0.72885096,1.1692226,1.5430427,1.8024454,1.9285139,1.934803,1.8480526,1.6933465,1.4936389,1.2678381,1.0248646,0.7679618,0.50477415
1.0727373,0.77037525,0.47184873,0.19227928,-0.05491903,-0.25339365,-0.39563355,-0.48961416,-0.54820395,-0.5850598,-0.6151923,-0.648523,-0.68431324,-0.7173656,-0.7456371,-0.76896286,-0.7886352,-0.80867934,-0.8319981,-0.85622174,-0.8766178,-0.893003,-0.90981966,-0.9286319,-0.9429439,-0.9389862,-0.8981615,-0.7955143,-0.6027327,-0.30294827,0.09753617,0.5658589,1.0483484,1.483709,1.8167396,2.0099049,2.0549452,1.9767659,1.8129178,1.589791,1.3227527,1.0266844,0.7180149,0.4150374,0.13788585,-0.099486046,-0.29126233,-0.43602228,-0.53650224,-0.5985347,-0.63312024,-0.6555097,-0.67821985,-0.7058054,-0.7340329,-0.7617344,-0.794054,-0.82724774,-0.85291356,-0.8684152,-0.87607634,-0.8831569,-0.8934507,-0.9051375,-0.9156142,-0.91544354,-0.88445276,-0.7921272,-0.6077164,-0.3160677,0.0769173,0.5404846,1.0189054,1.4456328,1.764799,1.947768,1.9946159,1.9248127,1.7693082,1.5588845,1.3136933,1.0469601,0.7670605,0.4779807,0.19319,-0.063102275,-0.2711729,-0.42288664,-0.5224443,-0.5816127,-0.61318403,-0.6307586,-0.6487579,-0.6749347,-0.70554763,-0.73393047,-0.75796115,-0.7807631,-0.8041288,-0.82236946,-0.834375,-0.84617627,-0.85921836,-0.87341845,-0.89055204,-0.9092612,-0.92211175,-0.9101684,-0.8427188,-0.6904273,-0.43395334,-0.07042223,0.377891,0.8648463,1.3266054,1.6983025,1.9368418,2.0306726,1.995204,1.8565681,1.6404055,1.3727771,1.0794071,0.7797068,0.48515517,0.20624223,-0.04397178,-0.25335756,-0.4140033,-0.5244649,-0.5929031,-0.63207656,-0.6526207,-0.6665704,-0.68412083,-0.70675254,-0.7312043,-0.75441116,-0.7740792,-0.78885704,-0.7994863,-0.8080777,-0.81583565,-0.82417154,-0.8340793,-0.84526044,-0.85600114,-0.8570162,-0.82786214,-0.7406145,-0.5674632,-0.29074842,0.08682142,0.5344508,0.99847215,1.4159116,1.7323523,1.9170945,1.9638653,1.8892392,1.7220218,1.4880893,1.2106736,0.91151005,0.608284,0.31912452,0.06286611,-0.14920422,-0.31424308,-0.4321246,-0.5084048,-0.5570539,-0.5911103,-0.6176861,-0.6420691,-0.66911024,-0.6988876,-0.7254706,-0.7462333,-0.76442933,-0.7812742,-0.7971073,-0.81237656,-0.8237788,-0.8324138,-0.8455109,-0.86424613,-0.8805704,-0.87969613,-0.84254843,-0.7487334,-0.57696766,-0.30777618,0.06521874,0.518739,0.9983449,1.4350009,1.7689828,1.9666328,2.0215616,1.951555,1.7861586,1.5538123,1.2790918,0.9775901,0.6623647,0.3573325,0.089557886,-0.12722883,-0.294097,-0.41697234,-0.5019555,-0.55610085,-0.58959717,-0.61675686,-0.6462764,-0.6771694,-0.7078486,-0.73776156,-0.7651525,-0.78969896,-0.8120443,-0.83061695,-0.8443758,-0.8547663,-0.8656479,-0.88273907,-0.9031177,-0.91127276,-0.88504654,-0.7946935,-0.608861,-0.31405866,0.077094994,0.534033,1.007807,1.4339825,1.757117,1.9479257,2.001978,1.9352759,1.7755451,1.5484738,1.2741289,0.9734041,0.6649521,0.36256462,0.08151768,-0.1617207,-0.3558345,-0.49791616,-0.5914408,-0.64389974,-0.66795105,-0.6793331,-0.69303465,-0.7175418,-0.7487326,-0.778442,-0.80477107,-0.8293058,-0.85094684,-0.8648112,-0.8708327,-0.8757178,-0.8851478,-0.9006014,-0.9179282,-0.9317465,-0.93471336,-0.90752274,-0.821935,-0.6511877,-0.37905782,-0.0054776208,0.44793195,0.93298346,1.3904182,1.7651832,2.0133886,2.1170025,2.086721,1.952492,1.747514,1.4947275,1.2087289,0.9008338,0.584207,0.2784591,0.0060423748,-0.21715191,-0.38695863,-0.5060728,-0.5816956,-0.6276287,-0.658738,-0.68722636,-0.7227156,-0.76593065,-0.8085213,-0.8443059,-0.87263185,-0.89255506,-0.9061975,-0.92014635,-0.93635553,-0.9521477,-0.96531993,-0.97424775,-0.97323304,-0.94353634,-0.8539247,-0.67083794,-0.37718585,0.0140010575,0.47114512,0.95063806,1.3948166,1.7459371,1.9665353,2.0494196,2.0133603,1.8873421,1.6966144,1.4595951,1.1869465,0.8868432,0.5765379,0.2798947,0.01733602,-0.19811608,-0.3630402,-0.48162943,-0.55992997,-0.6075603,-0.64085215,-0.67313445,-0.7092747,-0.750865,-0.7947343,-0.83409625,-0.8657631,-0.89067197,-0.91119975,-0.93026894,-0.9505273,-0.97149414,-0.9918297,-1.0114659,-1.0267605,-1.0308727,-1.0136014,-0.9589199,-0.8433721,-0.63803846,-0.32494915,0.089494124,0.57196116,1.0666203,1.5098648,1.8474424,2.0485501,2.1079638,2.0428538,1.8858211,1.6666131,1.404876,1.115129,0.81046957,0.50523096,0.21969883,-0.022577595,-0.21034974,-0.3461521,-0.43651357,-0.4912538,-0.5254693,-0.55601823,-0.59168625,-0.6310478,-0.668605,-0.69930804,-0.72100335,-0.7352255,-0.7455581,-0.75583065,-0.7698782,-0.78806293,-0.8083238,-0.828934,-0.84993684,-0.87359995,-0.89423513,-0.8927754,-0.8438291,-0.72357583,-0.5138897,-0.20575944,0.1935856,0.65299016,1.1162467,1.517006,1.8012586,1.9432343,1.9473603,1.8356421,1.6375769,1.3841361,1.1010283,0.8058856,0.5121069,0.23593062,-0.0069276993,-0.20464101,-0.34937617,-0.44428962,-0.50349265,-0.543675,-0.5759123,-0.6033323,-0.62727803,-0.65010065,-0.67377853,-0.7009405,-0.7301362,-0.75388473,-0.7694111,-0.7811055,-0.79301804,-0.80768836,-0.82624227,-0.84688735,-0.86581504,-0.8786115,-0.87575424,-0.8361992,-0.7306016,-0.52961797,-0.21829644,0.18924798,0.6530385,1.1199733,1.5316525,1.8359308,2.0035498,2.0300624,1.9318811,1.7403501,1.4872861,1.1958442,0.8843226,0.57350767,0.2841368,0.029316656,-0.18475117,-0.35352048,-0.47492713,-0.55421054,-0.6029571,-0.6331166,-0.65485746,-0.6763356,-0.70212895,-0.7339102,-0.7689606,-0.80074126,-0.8264649,-0.8469994,-0.86192167,-0.87236196,-0.8830151,-0.89772123,-0.91461754,-0.92902964,-0.93291634,-0.908799,-0.8330751,-0.6776314,-0.41958618,-0.05890728,0.3823211,0.86235034,1.3229159,1.7036632,1.9578054,2.0669813,2.04306,1.9151199,1.7134997,1.4599814,1.1709844,0.86141175,0.5477731,0.25204647,-0.006673739,-0.21807967,-0.37836695,-0.48969656,-0.56063586,-0.6062996
1.0907776,0.8579268,0.6152124,0.36973777,0.1311889,-0.0849901,-0.26694056,-0.41230917,-0.521773,-0.59944576,-0.6530298,-0.6895522,-0.72046584,-0.75351864,-0.7845911,-0.8102186,-0.8300771,-0.844322,-0.8574301,-0.8739195,-0.89360046,-0.9146413,-0.9335475,-0.94316715,-0.94196105,-0.93671465,-0.93005896,-0.92114323,-0.9132735,-0.90820646,-0.90334505,-0.89587003,-0.8791506,-0.83733195,-0.74832135,-0.5921844,-0.35385516,-0.0285433,0.3695049,0.80734104,1.2370174,1.6086007,1.8866162,2.0546165,2.1155107,2.0876417,1.9917576,1.8386717,1.6363487,1.3968201,1.1306953,0.8512209,0.5776397,0.32882303,0.11698523,-0.053664964,-0.18740083,-0.2956419,-0.38490114,-0.4550478,-0.508346,-0.55007255,-0.5872871,-0.6257759,-0.6656623,-0.70148164,-0.7273243,-0.74478376,-0.760435,-0.77625734,-0.7915054,-0.8038671,-0.8060136,-0.7964341,-0.78486913,-0.7793886,-0.77882576,-0.7726236,-0.7374475,-0.6461655,-0.4808018,-0.2294777,0.10609537,0.50252795,0.9201583,1.3048066,1.6070046,1.8047962,1.9007603,1.9074894,1.8382367,1.706215,1.5245372,1.3080381,1.0705649,0.82089555,0.5690178,0.3279331,0.11465303,-0.05140843,-0.16022392,-0.2217994,-0.25986153,-0.28996077,-0.31746092,-0.34494066,-0.3724943,-0.40381092,-0.4433951,-0.48863333,-0.5314835,-0.5681194,-0.6035456,-0.6402925,-0.6729698,-0.6971892,-0.71491903,-0.7314567,-0.74790007,-0.76273346,-0.77860844,-0.7973987,-0.81775975,-0.8403785,-0.8670859,-0.89503515,-0.91301847,-0.9038921,-0.8480031,-0.72252786,-0.50658613,-0.19444975,0.19612938,0.6285065,1.0592387,1.4440523,1.7418169,1.9291615,2.0060453,1.9886222,1.9011617,1.7623577,1.578936,1.3535421,1.0938365,0.8140463,0.5332548,0.27421802,0.055898517,-0.111818746,-0.228613,-0.3055152,-0.3595386,-0.40222713,-0.43795308,-0.471183,-0.50585955,-0.5403403,-0.5706113,-0.59645885,-0.6204331,-0.64123434,-0.65477353,-0.661959,-0.6686153,-0.67939353,-0.6944253,-0.7123473,-0.73474896,-0.76272124,-0.7929926,-0.8192989,-0.8349224,-0.8317886,-0.7921838,-0.691942,-0.51192504,-0.24343096,0.10447212,0.5035731,0.910492,1.2783082,1.5704587,1.7615144,1.843523,1.828296,1.7349942,1.5840856,1.3923229,1.1687027,0.9213101,0.66501117,0.42021143,0.2070066,0.04032393,-0.076000765,-0.15361981,-0.20952292,-0.25261807,-0.28608724,-0.31333327,-0.33751822,-0.36195323,-0.39031425,-0.42292243,-0.45672956,-0.49096215,-0.52658457,-0.55877215,-0.58087707,-0.594925,-0.6054643,-0.6126803,-0.6178814,-0.6271205,-0.6484861,-0.68303835,-0.7233744,-0.7647306,-0.80726856,-0.8460482,-0.86558753,-0.8417263,-0.7473207,-0.5626358,-0.28128532,0.08634967,0.5086045,0.93791306,1.3235861,1.625186,1.8193814,1.8997307,1.8778207,1.77651,1.6162076,1.4094448,1.1668965,0.9033913,0.63475937,0.3741839,0.13479185,-0.06959457,-0.23012348,-0.34615067,-0.4263212,-0.48654795,-0.5373752,-0.5799124,-0.61200386,-0.6318079,-0.6453138,-0.6607724,-0.676973,-0.689479,-0.6977064,-0.7032347,-0.70646375,-0.70846945,-0.71178216,-0.716631,-0.72268075,-0.73177177,-0.745616,-0.75953484,-0.7624342,-0.7422056,-0.6854717,-0.5755958,-0.39080974,-0.114426084,0.2549816,0.7017953,1.1807985,1.6229894,1.9645424,2.1719553,2.2480652,2.2151642,2.0985465,1.9158051,1.6765552,1.3913645,1.0760828,0.75151694,0.43844607,0.15349923,-0.09031909,-0.28461233,-0.4294242,-0.5332788,-0.6066893,-0.6588782,-0.6980161,-0.72980744,-0.75610006,-0.77639407,-0.79103684,-0.7990481,-0.80030274,-0.7992235,-0.799668,-0.8025286,-0.80560374,-0.8044291,-0.7941749,-0.7747347,-0.7577343,-0.7530366,-0.7571892,-0.7641931,-0.77174747,-0.77964157,-0.78295165,-0.76658404,-0.70864713,-0.583521,-0.3682137,-0.05459289,0.34618986,0.809766,1.2925183,1.7306904,2.0689056,2.2782366,2.3545868,2.3142369,2.1814451,1.9783632,1.7228272,1.4318583,1.1198047,0.80001295,0.49062678,0.20576097,-0.04183367,-0.24021514,-0.38880035,-0.4939637,-0.5682431,-0.62378055,-0.66656923,-0.7038119,-0.738827,-0.7706771,-0.80174255,-0.83342355,-0.8612648,-0.87871784,-0.88778985,-0.8966082,-0.90828335,-0.9234455,-0.938207,-0.94564587,-0.94632363,-0.9455532,-0.94821906,-0.9519033,-0.9425974,-0.8990477,-0.7921351,-0.5911494,-0.27766788,0.1410263,0.62963253,1.1350281,1.590877,1.942418,2.1700747,2.274169,2.2651737,2.1609702,1.9817038,1.7492976,1.4761221,1.1685174,0.84411013,0.52999175,0.2508086,0.01849185,-0.16708441,-0.30763113,-0.405585,-0.47020084,-0.5151213,-0.5493536,-0.5758441,-0.59685785,-0.6159273,-0.635891,-0.6565989,-0.67727894,-0.6989355,-0.7224046,-0.7479747,-0.7744023,-0.7976471,-0.81405437,-0.8222551,-0.82447135,-0.8239663,-0.82161844,-0.8190288,-0.8182787,-0.8226454,-0.8306724,-0.8287976,-0.798819,-0.72118783,-0.5746701,-0.33998248,-0.0078098886,0.4104926,0.88121146,1.3535534,1.7703915,2.0831633,2.267754,2.3274891,2.2798982,2.1425827,1.9257021,1.643986,1.323658,0.9915503,0.6724467,0.38408265,0.12895256,-0.09595866,-0.28399548,-0.42651683,-0.52686846,-0.5939128,-0.6379519,-0.6741978,-0.71411395,-0.7560745,-0.79219735,-0.81771535,-0.8321863,-0.8413361,-0.8523532,-0.86352944,-0.86890346,-0.86866677,-0.86614907,-0.86385864,-0.8641528,-0.8677457,-0.873262,-0.8769623,-0.8691311,-0.8294653,-0.727712,-0.5338445,-0.23500422,0.15501183,0.60474795,1.0732245,1.5112224,1.8686614,2.1083622,2.219981,2.214365,2.109202,1.9259106,1.6870248,1.4101399,1.1090859,0.8008159,0.5028504,0.22775662,-0.014546656,-0.21518539,-0.3692288,-0.47936228,-0.5544137,-0.6060542,-0.646172,-0.68093073,-0.71067286,-0.7357481,-0.75657386,-0.7739174,-0.79073733,-0.8089274,-0.8278936,-0.84405553,-0.85149246,-0.8511249,-0.8507874,-0.85330695,-0.85402286,-0.84851867,-0.83976436,-0.83497185,-0.8377479,-0.84351546,-0.8387962
0.7933986,0.52144367,0.23114964,-0.050677504,-0.2961001,-0.48892164,-0.62730396,-0.71637607,-0.7692476,-0.8061854,-0.842132,-0.8813477,-0.91964597,-0.9533766,-0.9813909,-0.9999009,-1.0086344,-1.0107917,-1.0060892,-0.98910606,-0.9457102,-0.8498778,-0.67168844,-0.3958678,-0.029223641,0.40188146,0.8504239,1.257356,1.5699146,1.7594653,1.8274794,1.7945484,1.688021,1.5343971,1.3530109,1.1493481,0.9158502,0.6491309,0.36333913,0.0817148,-0.17742987,-0.39880055,-0.5685325,-0.6851846,-0.75907,-0.8030923,-0.8311606,-0.85463077,-0.8776687,-0.8990627,-0.917802,-0.9354687,-0.95295566,-0.9690671,-0.9808949,-0.9813509,-0.9586928,-0.8955435,-0.7658226,-0.54676974,-0.23279697,0.16398987,0.60898745,1.0452654,1.4109664,1.6623563,1.78756,1.8019267,1.7326722,1.6053824,1.4376307,1.2373364,1.0051916,0.74264324,0.46068218,0.17843747,-0.08550274,-0.31585383,-0.50022733,-0.6325177,-0.7172274,-0.76658636,-0.79591835,-0.820491,-0.8466246,-0.87097853,-0.89052343,-0.9058345,-0.9177472,-0.92862266,-0.94257444,-0.9566786,-0.9575449,-0.9255118,-0.8361909,-0.6643619,-0.39566347,-0.03598229,0.38785693,0.8284905,1.228794,1.5399647,1.7325233,1.8024634,1.7694018,1.6652193,1.5167211,1.3384398,1.1362089,0.90909845,0.65640026,0.3836828,0.10521717,-0.15655376,-0.3791472,-0.55049884,-0.67145264,-0.75049186,-0.800462,-0.83361924,-0.85776156,-0.8785856,-0.89993054,-0.92199695,-0.94237524,-0.96017194,-0.9755244,-0.98686725,-0.9910815,-0.9789518,-0.9320241,-0.82412773,-0.62776446,-0.33069903,0.055031665,0.494501,0.9348164,1.3192775,1.6039488,1.7680392,1.8160577,1.7711022,1.661522,1.5097234,1.3269713,1.113728,0.87090456,0.6054448,0.32698467,0.048636086,-0.21192105,-0.4334325,-0.5988168,-0.7039568,-0.76002014,-0.7875753,-0.8045316,-0.8234557,-0.8502878,-0.8810061,-0.90858954,-0.92967993,-0.9453511,-0.9575787,-0.9671792,-0.9733825,-0.96537125,-0.9195116,-0.8066426,-0.6018669,-0.29593357,0.09791646,0.54191804,0.9816076,1.3598348,1.6306524,1.7746667,1.8009765,1.7373656,1.6159607,1.4567087,1.268474,1.0571456,0.8217006,0.5597086,0.2810972,0.0070345146,-0.23941506,-0.44151297,-0.59247065,-0.69266546,-0.75027275,-0.7810357,-0.8013233,-0.8224599,-0.8485104,-0.87716013,-0.9034663,-0.9261989,-0.94876504,-0.9720936,-0.9928299,-1.0024341,-0.983947,-0.914078,-0.7678988,-0.52906173,-0.1953432,0.21807134,0.669153,1.0963658,1.4425759,1.6721069,1.7759988,1.7723751,1.6935179,1.5635331,1.3943583,1.1949044,0.97116464,0.7241063,0.45845318,0.18657756,-0.07579193,-0.30831364,-0.49138275,-0.61723435,-0.69147384,-0.72986096,-0.7521352,-0.7726824,-0.79578555,-0.8210219,-0.84910583,-0.8778785,-0.90389955,-0.9255832,-0.94200647,-0.95517236,-0.9597718,-0.9351873,-0.8510572,-0.6758233,-0.39528692,-0.022407694,0.4091078,0.8478411,1.2351762,1.5260601,1.6991788,1.757253,1.7224679,1.6218089,1.4759417,1.2989655,1.0962087,0.86721563,0.61358625,0.34328762,0.07282424,-0.17928322,-0.39785135,-0.5701482,-0.68953454,-0.76054454,-0.79817086,-0.8202465,-0.8398761,-0.8638632,-0.8909389,-0.9144661,-0.93214864,-0.9460944,-0.9595853,-0.97417945,-0.98342055,-0.97232234,-0.9187062,-0.796799,-0.58544326,-0.2781094,0.11110561,0.54943854,0.9865931,1.3626479,1.6303732,1.7727927,1.8025444,1.7474933,1.633705,1.4777857,1.2898706,1.0748829,0.8332922,0.56788784,0.2886794,0.013693746,-0.23570767,-0.44151288,-0.5943094,-0.6952581,-0.7540057,-0.7871092,-0.81186104,-0.8382841,-0.8674323,-0.89686906,-0.92490345,-0.9485166,-0.96550775,-0.9777326,-0.98723155,-0.99101853,-0.9741266,-0.9094958,-0.76955837,-0.5327983,-0.19426881,0.22291343,0.6739795,1.1036203,1.4580729,1.6996527,1.8154753,1.8191104,1.7394902,1.6049409,1.4349968,1.2374915,1.0135252,0.7627375,0.48849326,0.20455857,-0.06953366,-0.31320506,-0.50871736,-0.65079445,-0.7442119,-0.7983346,-0.82952505,-0.8540006,-0.87727743,-0.8985541,-0.9190338,-0.9397389,-0.9591353,-0.97500455,-0.9847425,-0.9868603,-0.9762711,-0.9382896,-0.84968454,-0.68453306,-0.42717075,-0.07598242,0.3512187,0.8040669,1.2160008,1.5349672,1.7347034,1.8144039,1.7943368,1.7037807,1.5662206,1.3938851,1.1914316,0.96189106,0.7068683,0.43009448,0.14764413,-0.1155141,-0.3378362,-0.5083365,-0.62921286,-0.71214795,-0.7680625,-0.80508476,-0.83263236,-0.85620713,-0.878781,-0.9044066,-0.930638,-0.9504318,-0.962052,-0.96969724,-0.97661257,-0.9770022,-0.95294034,-0.8772026,-0.7199924,-0.4600045,-0.097797595,0.3357661,0.7864889,1.1963089,1.518109,1.7257107,1.8166205,1.8046992,1.7144712,1.5713071,1.3905166,1.1802764,0.94425815,0.6835007,0.40503636,0.12484144,-0.1374176,-0.36469996,-0.5445721,-0.67074656,-0.7493484,-0.7967509,-0.8267992,-0.8469752,-0.8612235,-0.87328184,-0.8868077,-0.9013924,-0.9152202,-0.9279225,-0.9416963,-0.9586264,-0.9691675,-0.9531938,-0.88803244,-0.7485526,-0.51385367,-0.17974031,0.23498435,0.68934137,1.1256245,1.4841233,1.7247927,1.838417,1.8417968,1.7635717,1.6290423,1.4534686,1.2447039,1.0071961,0.74679816,0.47291043,0.19677491,-0.06601376,-0.29623213,-0.4808501,-0.6172885,-0.7089185,-0.7654946,-0.8029357,-0.83227867,-0.85629064,-0.8777152,-0.90047514,-0.92568016,-0.950236,-0.9699931,-0.9852542,-0.9961612,-0.99399495,-0.9617441,-0.8756261,-0.71043634,-0.45034206,-0.09652292,0.33021918,0.7867078,1.2100472,1.5420648,1.7516708,1.8347682,1.8093709,1.7070657,1.5572176,1.3767048,1.1712829,0.9403176,0.6822855,0.40466613,0.12654355,-0.1304645,-0.35119054,-0.528943,-0.6595637,-0.7436436,-0.7918534,-0.8195491,-0.84259224,-0.8686359,-0.89387107,-0.9152806,-0.9337686,-0.9480785,-0.9561266,-0.95996934,-0.96198845,-0.9566048,-0.9278444,-0.85133266
-0.21225542,0.0781329,0.40880588,0.75393534,1.0816767,1.3598418,1.5658499,1.6914148,1.7353989,1.6980174,1.5785381,1.3746983,1.0900126,0.74517006,0.37292647,0.007549753,-0.317148,-0.5748885,-0.7522795,-0.8508318,-0.8870151,-0.88244164,-0.8562042,-0.8241425,-0.796236,-0.77409244,-0.75783145,-0.7526457,-0.7650419,-0.7983309,-0.8516423,-0.9189281,-0.98259914,-1.0119458,-0.9690919,-0.8171584,-0.5405583,-0.15696256,0.2931349,0.75510734,1.1659613,1.4739406,1.6577144,1.7246256,1.6974412,1.6035848,1.4649128,1.289077,1.0763386,0.82941216,0.554809,0.269362,-0.003994767,-0.2460444,-0.4440272,-0.5940311,-0.698359,-0.7665461,-0.8133245,-0.85109097,-0.88694024,-0.9206015,-0.95010006,-0.9764327,-0.9996868,-1.0203582,-1.0390707,-1.0522249,-1.0499172,-1.0135115,-0.91831404,-0.73978347,-0.46521398,-0.10235595,0.32397547,0.7709772,1.1821803,1.5064021,1.7118266,1.7905512,1.7583677,1.6459101,1.4847822,1.2955798,1.0831134,0.8436331,0.57582474,0.2891697,0.0042232503,-0.25678003,-0.47687694,-0.64921385,-0.7761019,-0.86219585,-0.9155415,-0.9473132,-0.96461487,-0.9703782,-0.96769536,-0.96036386,-0.95337373,-0.95238864,-0.960342,-0.97296053,-0.97980326,-0.9660028,-0.9073343,-0.77413315,-0.5478237,-0.22779699,0.17071712,0.610055,1.0338637,1.3910348,1.6472017,1.7829041,1.7982801,1.7142364,1.562986,1.373125,1.1602814,0.9305547,0.68399394,0.41880792,0.14235683,-0.12650917,-0.36637795,-0.56067866,-0.6992132,-0.7799224,-0.8144757,-0.8262097,-0.83687085,-0.854623,-0.87708527,-0.9036846,-0.93472636,-0.9685463,-1.0052608,-1.0422655,-1.0715382,-1.0812141,-1.0539993,-0.96852076,-0.80007344,-0.5289906,-0.15915222,0.27727005,0.7304414,1.1435477,1.4660935,1.6686826,1.7477511,1.7210797,1.6188326,1.469986,1.2898102,1.0813298,0.8441882,0.5826562,0.3099184,0.042761847,-0.20186709,-0.40731493,-0.5639565,-0.6721297,-0.73783433,-0.77293724,-0.792977,-0.8099776,-0.8317629,-0.86052406,-0.893841,-0.92931825,-0.96359515,-0.99336225,-1.0162848,-1.0284132,-1.0205003,-0.9750567,-0.86862993,-0.67477787,-0.37801012,0.006669524,0.43849406,0.86649936,1.2382385,1.5120083,1.6674906,1.7085166,1.6614634,1.5595266,1.4233891,1.2585926,1.0613366,0.82776153,0.5607997,0.2716497,-0.017638825,-0.28021085,-0.49712908,-0.65883595,-0.7643576,-0.82388335,-0.8564886,-0.8826351,-0.9106929,-0.93853796,-0.9651001,-0.9887225,-1.0068811,-1.0173411,-1.0205064,-1.0213175,-1.0154673,-0.98309493,-0.89757776,-0.73522604,-0.4822782,-0.13552295,0.2856053,0.73162335,1.1414227,1.4608036,1.660026,1.7402955,1.7189322,1.6205041,1.4718926,1.294178,1.0977235,0.8789367,0.6306124,0.35886765,0.08152605,-0.17994905,-0.40463182,-0.5801706,-0.7065779,-0.7905678,-0.8409838,-0.869844,-0.88942224,-0.906175,-0.9224928,-0.9404258,-0.9603248,-0.98214275,-1.0057746,-1.0272102,-1.038245,-1.0256529,-0.96869004,-0.84140253,-0.62302566,-0.30895758,0.08691972,0.5293297,0.9660713,1.344546,1.6204878,1.7688575,1.7931929,1.7180337,1.5766215,1.3976725,1.1961015,0.9750161,0.7316518,0.46435162,0.18235323,-0.091855235,-0.33512664,-0.53162944,-0.67500883,-0.77173316,-0.8351179,-0.8765075,-0.90408105,-0.9263592,-0.9507381,-0.97593725,-0.99354714,-1.0003734,-1.0008072,-0.99858165,-0.99474776,-0.98572683,-0.9563821,-0.87690985,-0.71124893,-0.43789405,-0.064118505,0.37524477,0.8252506,1.2224237,1.5126638,1.6695737,1.6977708,1.6234769,1.483015,1.3114458,1.1316627,0.94571203,0.74558485,0.5272057,0.2912944,0.046033166,-0.19532223,-0.41694665,-0.60060436,-0.73403656,-0.81655043,-0.8578394,-0.87249994,-0.87439114,-0.8730422,-0.87526804,-0.8894444,-0.9196355,-0.96316504,-1.0121571,-1.0496218,-1.0561231,-1.0148381,-0.90699,-0.7158702,-0.43293166,-0.06324548,0.36704734,0.8097376,1.2057213,1.5058583,1.6821891,1.7288351,1.6624072,1.5175637,1.3342338,1.1404235,0.9466202,0.7500332,0.5403241,0.31086332,0.06743736,-0.17392184,-0.39275628,-0.5690031,-0.6876149,-0.74315524,-0.7412245,-0.69615257,-0.6300603,-0.56965816,-0.5407065,-0.5643766,-0.65153575,-0.7950727,-0.970193,-1.1440681,-1.2830102,-1.3562762,-1.3366419,-1.2005373,-0.93616736,-0.55292827,-0.0838135,0.42221698,0.90929127,1.3187315,1.6054828,1.7544359,1.7795224,1.7118766,1.5811172,1.4097973,1.2133183,0.9947303,0.7512344,0.48592052,0.21162044,-0.05206184,-0.2844335,-0.47027504,-0.6044733,-0.6907224,-0.74171054,-0.7787675,-0.81980747,-0.8682598,-0.9181373,-0.9593,-0.98323584,-0.99270374,-0.9968249,-1.0022022,-1.0112936,-1.017921,-1.0052551,-0.94825757,-0.816007,-0.5839998,-0.24835213,0.16819683,0.6208376,1.056124,1.4172848,1.6584704,1.7664404,1.7611569,1.6781462,1.5475887,1.3878582,1.2042612,0.98950934,0.7371714,0.4527278,0.15587062,-0.12467083,-0.36476928,-0.55309284,-0.6869781,-0.77008784,-0.8141246,-0.83474916,-0.8469405,-0.86063755,-0.8777734,-0.898115,-0.9230147,-0.9538174,-0.99050397,-1.0307213,-1.0670191,-1.0841931,-1.0616212,-0.9753304,-0.8014313,-0.5271165,-0.15998323,0.27175078,0.72161746,1.1331011,1.4553976,1.6579905,1.7379092,1.7114367,1.6046011,1.4483901,1.2638118,1.0565908,0.82902867,0.5853153,0.3291167,0.07065089,-0.17170942,-0.38185322,-0.5465964,-0.65890056,-0.7254487,-0.76216984,-0.78491926,-0.80723244,-0.8388697,-0.8778116,-0.915235,-0.94687545,-0.9719014,-0.99137324,-1.0066369,-1.0153751,-1.0078508,-0.9646561,-0.86080045,-0.67175025,-0.38211256,0.0020882688,0.45064,0.91519713,1.3350321,1.6519011,1.8308377,1.8687954,1.7901725,1.6339953,1.4365252,1.2192098,0.98810065,0.7415796,0.47730216,0.20118238,-0.06798787,-0.3093739,-0.5090005,-0.65932935,-0.76106834,-0.8254294,-0.87027556,-0.91321284,-0.9656883,-1.0307897
1.8398426,1.9091402,1.8756355,1.7626753,1.5935637,1.3877909,1.1597244,0.9173197,0.66677064,0.41664934,0.1795311,-0.03144003,-0.20934388,-0.35214126,-0.45836958,-0.5318216,-0.58159983,-0.6147516,-0.6371618,-0.6546231,-0.67391014,-0.70055705,-0.73152655,-0.76259553,-0.7947903,-0.82620615,-0.8504653,-0.86441046,-0.86931473,-0.86839575,-0.8664013,-0.86797905,-0.8740427,-0.8744729,-0.84865624,-0.77106255,-0.61468273,-0.36396053,-0.023532087,0.38568884,0.82604027,1.243938,1.584861,1.8115404,1.9140407,1.905467,1.8111444,1.6600224,1.4724554,1.256528,1.0159916,0.75599205,0.48607,0.22402206,-0.008371721,-0.19815366,-0.34242022,-0.44421226,-0.51308066,-0.5598397,-0.5936893,-0.6206873,-0.64200974,-0.6598189,-0.6791886,-0.70336306,-0.72870845,-0.7479711,-0.76202047,-0.77772474,-0.7960519,-0.8127535,-0.82395625,-0.8278692,-0.8283324,-0.8322152,-0.8391672,-0.8381493,-0.8081177,-0.7205261,-0.54998595,-0.285621,0.063958354,0.47198227,0.89745104,1.2896026,1.5994235,1.7951005,1.8684329,1.8325303,1.7152712,1.5441494,1.3373291,1.1073496,0.86436945,0.61584306,0.36796603,0.13353798,-0.07217412,-0.2446764,-0.38320047,-0.4848675,-0.5514072,-0.58975166,-0.6108969,-0.6265894,-0.64373976,-0.66355056,-0.685135,-0.7071759,-0.7280536,-0.7466457,-0.760536,-0.771874,-0.7877741,-0.8085384,-0.8299056,-0.8486097,-0.8607956,-0.8593577,-0.8308031,-0.7570279,-0.6177873,-0.39695296,-0.090064265,0.2907389,0.71153104,1.1232964,1.4759252,1.7296962,1.8638397,1.8786757,1.7922024,1.629602,1.4159747,1.1741154,0.9194253,0.6611906,0.40619466,0.16250494,-0.05807223,-0.2450717,-0.39117575,-0.49349117,-0.55793536,-0.59550184,-0.6165037,-0.6318428,-0.64993775,-0.67260075,-0.6986509,-0.72411674,-0.7470728,-0.76891583,-0.7873799,-0.80199736,-0.8150901,-0.82775563,-0.8417535,-0.8567242,-0.8675287,-0.8641828,-0.83115,-0.7457993,-0.58278143,-0.32741237,0.01667827,0.42709383,0.86122525,1.2625173,1.5786076,1.7792225,1.8597451,1.8342558,1.7269663,1.5605029,1.3521434,1.1189637,0.8734222,0.62098837,0.36972326,0.13209017,-0.08350733,-0.26959428,-0.41646037,-0.5217485,-0.59257025,-0.64016646,-0.67345643,-0.6967895,-0.712988,-0.7247916,-0.7363491,-0.74998033,-0.7656627,-0.7853313,-0.809329,-0.8357703,-0.8618646,-0.8831148,-0.8998175,-0.9121491,-0.90847164,-0.87288535,-0.7909138,-0.64367306,-0.41276243,-0.092846036,0.29931718,0.7242118,1.1305441,1.4706969,1.7111497,1.838143,1.8576525,1.7877678,1.6484783,1.4603536,1.2418394,1.000362,0.7397471,0.47040763,0.20694475,-0.035376888,-0.24420695,-0.41154847,-0.5330069,-0.61335844,-0.6650229,-0.6983159,-0.72185224,-0.74192375,-0.7613314,-0.78283364,-0.80555046,-0.82527536,-0.8401742,-0.85223687,-0.8655831,-0.88234746,-0.9000684,-0.9149447,-0.9269309,-0.93663627,-0.9370213,-0.9110929,-0.83526915,-0.6814634,-0.42444828,-0.055388264,0.40715015,0.9137295,1.3986386,1.7977031,2.0664442,2.194501,2.194338,2.0896745,1.9100498,1.6817871,1.4210902,1.1330464,0.8271471,0.5192693,0.22165166,-0.055467352,-0.30231115,-0.5043892,-0.6500113,-0.7440985,-0.8011491,-0.83395624,-0.853138,-0.868685,-0.8862155,-0.9079629,-0.932247,-0.95409524,-0.9735161,-0.99265325,-1.0108935,-1.0270561,-1.0407343,-1.0534619,-1.0680708,-1.0811456,-1.0772086,-1.0317639,-0.913448,-0.69357604,-0.3602603,0.07731663,0.58706665,1.1141901,1.5907606,1.9578162,2.1839652,2.265443,2.2217784,2.0874352,1.8946089,1.6631389,1.4038885,1.1240287,0.8292443,0.5285511,0.23762342,-0.027537832,-0.2544992,-0.43558955,-0.57003015,-0.662469,-0.7196355,-0.7493706,-0.764574,-0.77840406,-0.7949889,-0.81305623,-0.83156663,-0.84989274,-0.8674114,-0.8835686,-0.89959705,-0.9180976,-0.9399356,-0.96490663,-0.9920189,-1.014321,-1.0207726,-1.0003698,-0.9360653,-0.80313694,-0.57929593,-0.25997156,0.13589628,0.57389873,1.0111029,1.4015114,1.7006606,1.8782684,1.9326252,1.8839079,1.7613655,1.591619,1.3926454,1.1745436,0.93866336,0.68739355,0.43282172,0.1896912,-0.02915501,-0.21261206,-0.35508856,-0.45729896,-0.52350277,-0.56286514,-0.5876064,-0.6078897,-0.6288364,-0.6484975,-0.66573715,-0.68471265,-0.70700496,-0.73049206,-0.7513455,-0.7666539,-0.7793436,-0.7931089,-0.80625165,-0.81633097,-0.82385707,-0.83016497,-0.8331691,-0.8225455,-0.77991647,-0.6835941,-0.514099,-0.25858736,0.0817022,0.48230076,0.9015324,1.2926041,1.609046,1.8146603,1.894231,1.8597589,1.7417662,1.5686203,1.3606485,1.1315142,0.88804215,0.63527906,0.38223645,0.1431619,-0.06856882,-0.24592388,-0.38675293,-0.4884258,-0.5497792,-0.57863027,-0.5885655,-0.59392923,-0.60534513,-0.62471217,-0.6490477,-0.6758934,-0.70386654,-0.73013604,-0.7525877,-0.7717951,-0.7893327,-0.8065179,-0.82292205,-0.83838195,-0.85295707,-0.86289567,-0.8575275,-0.8191236,-0.7266732,-0.5601038,-0.30709016,0.030639898,0.4337482,0.86277145,1.264418,1.5875753,1.7980156,1.8857697,1.8636813,1.7547494,1.5804728,1.3611664,1.1147709,0.8542073,0.5886603,0.3292998,0.09193448,-0.115051225,-0.28810686,-0.4196309,-0.50813645,-0.5627893,-0.5973272,-0.6230862,-0.64602107,-0.66911507,-0.6930306,-0.7172243,-0.7432072,-0.7724152,-0.800693,-0.8238708,-0.8437111,-0.8620699,-0.8793851,-0.8940844,-0.9029439,-0.90704864,-0.90776557,-0.89489734,-0.84320414,-0.7234687,-0.5132431,-0.19608106,0.2301873,0.73125046,1.2370672,1.6738473,1.9889526,2.1563406,2.1795964,2.0874143,1.9127805,1.681444,1.4151437,1.1266829,0.8206184,0.5065719,0.20283411,-0.07159419,-0.3030866,-0.48636404,-0.6231122,-0.7168783,-0.773727,-0.8061422,-0.8288063,-0.85123396,-0.87663263,-0.9018876,-0.92256767,-0.9375207,-0.94611895,-0.9497073,-0.9516856,-0.9543576,-0.9602723,-0.9712535,-0.9834204,-0.985745
-0.08105623,-0.26647112,-0.40124336,-0.4933385,-0.55464035,-0.59782887,-0.63034004,-0.6569578,-0.68230176,-0.71009815,-0.74199086,-0.77492654,-0.8037661,-0.8252904,-0.84085983,-0.85370874,-0.8644685,-0.8715217,-0.87209713,-0.8663635,-0.8595064,-0.8564454,-0.8569482,-0.85363525,-0.8354507,-0.789107,-0.6927531,-0.51890695,-0.25138152,0.10172267,0.5132207,0.941684,1.3355316,1.6507936,1.8606483,1.9608004,1.96875,1.9091331,1.8053637,1.6704586,1.5042629,1.3063309,1.0779384,0.81792474,0.5351382,0.2565747,0.008988848,-0.19465196,-0.3498257,-0.45868373,-0.5280802,-0.56912184,-0.5983482,-0.6272515,-0.6581282,-0.6883547,-0.7132163,-0.73302156,-0.75219506,-0.7715557,-0.7906668,-0.8104867,-0.82935476,-0.8426421,-0.8463493,-0.84231895,-0.8361955,-0.8296427,-0.8211951,-0.81163526,-0.8032614,-0.794601,-0.77714276,-0.7341897,-0.640044,-0.46642807,-0.19573934,0.16873646,0.5972208,1.0359923,1.4264363,1.7278229,1.9207304,2.0044284,1.998909,1.9322987,1.826055,1.6905413,1.52505,1.3254106,1.091005,0.8273148,0.5481973,0.27522773,0.034075554,-0.159538,-0.3063336,-0.41126308,-0.48401836,-0.5389483,-0.5863933,-0.63459224,-0.6850251,-0.73000914,-0.7645096,-0.7910006,-0.8133175,-0.8318396,-0.84505993,-0.8518955,-0.85332745,-0.8512376,-0.846204,-0.83965725,-0.83462775,-0.8343908,-0.84021294,-0.8476605,-0.84428364,-0.8109559,-0.7246839,-0.56271267,-0.31386137,0.019032642,0.42093253,0.8521425,1.2561827,1.5839537,1.804679,1.9151025,1.9344206,1.8898602,1.8034862,1.6831951,1.5295504,1.3405895,1.114788,0.8586619,0.5868525,0.31892878,0.07564468,-0.12830341,-0.28912807,-0.40762976,-0.4844126,-0.52731746,-0.5517768,-0.57401085,-0.60438854,-0.6412572,-0.6792575,-0.71730924,-0.7529864,-0.78275,-0.80697006,-0.82859945,-0.84769577,-0.8608665,-0.8662808,-0.8623323,-0.8492083,-0.83518696,-0.827515,-0.82315004,-0.8175559,-0.8116418,-0.80555344,-0.7876308,-0.73082817,-0.604409,-0.38727865,-0.074107155,0.31839985,0.75254995,1.1789523,1.5451332,1.8120903,1.9673796,2.020719,1.9945123,1.9133213,1.7937618,1.6437545,1.465608,1.2574954,1.0186651,0.75423473,0.47672632,0.20467745,-0.041774295,-0.24243766,-0.3850737,-0.47351915,-0.52135867,-0.54516953,-0.56109,-0.57937205,-0.6030911,-0.63120395,-0.6615052,-0.6921438,-0.7222641,-0.7503182,-0.773514,-0.79162973,-0.80696374,-0.8199903,-0.82994217,-0.83804345,-0.8458708,-0.85250723,-0.8569451,-0.85982496,-0.85668546,-0.8340084,-0.7729418,-0.6520985,-0.45312938,-0.16788027,0.19688646,0.6120976,1.0277251,1.3900629,1.6601858,1.8246089,1.8928378,1.8853981,1.8253014,1.7309217,1.6093255,1.4590304,1.2764281,1.0592849,0.8115515,0.5451356,0.28025302,0.042068258,-0.15117817,-0.29339382,-0.3907327,-0.4595293,-0.51582414,-0.5665155,-0.61126095,-0.65038025,-0.6860556,-0.7198052,-0.7508741,-0.77552736,-0.79339075,-0.8074237,-0.816696,-0.8208525,-0.8252882,-0.8349515,-0.84801185,-0.8567036,-0.85626435,-0.8501811,-0.8455507,-0.84643084,-0.8486215,-0.841601,-0.8107377,-0.73243546,-0.5801607,-0.33794788,-0.0033536272,0.40730858,0.8529022,1.2798231,1.638174,1.8928609,2.034458,2.0748024,2.0359724,1.9436134,1.8155402,1.658055,1.47166,1.2537669,1.0044638,0.73066396,0.44696417,0.17856647,-0.051673982,-0.23713014,-0.37778348,-0.47408345,-0.5342787,-0.57494414,-0.60977054,-0.64421093,-0.67869824,-0.7102325,-0.7367768,-0.7573725,-0.7723148,-0.78527474,-0.7984358,-0.81216556,-0.8249786,-0.8364387,-0.8488179,-0.86025167,-0.8699817,-0.8797817,-0.8885249,-0.8964372,-0.9011503,-0.89062506,-0.8448254,-0.7387952,-0.5484816,-0.26183742,0.11169135,0.5423299,0.98522997,1.3884935,1.7078434,1.9179443,2.0146189,2.0144727,1.9468982,1.8386105,1.7045227,1.5424311,1.3438764,1.1092134,0.84412766,0.56318754,0.2931274,0.056760333,-0.13651231,-0.2850572,-0.38925695,-0.4555172,-0.49987543,-0.5375124,-0.57496166,-0.612681,-0.64719856,-0.67866313,-0.71051294,-0.7423867,-0.7724797,-0.7978351,-0.815058,-0.82531136,-0.83449817,-0.8450588,-0.8525389,-0.85608786,-0.859883,-0.8661242,-0.8747607,-0.8834845,-0.8869313,-0.87538064,-0.8350202,-0.744982,-0.5779496,-0.3172086,0.03339273,0.45226994,0.89955384,1.3215138,1.6656077,1.9001844,2.0218527,2.044482,1.990057,1.8829458,1.7406701,1.5699086,1.3701807,1.141245,0.8863124,0.6153772,0.34819722,0.10369528,-0.105823174,-0.27208096,-0.3945605,-0.47703174,-0.5276258,-0.563052,-0.596661,-0.6328789,-0.6731133,-0.7163285,-0.75830984,-0.7926707,-0.81546116,-0.8284086,-0.8378434,-0.8499,-0.8626549,-0.8683046,-0.861778,-0.8454707,-0.82879084,-0.8197783,-0.8198511,-0.82303894,-0.81261003,-0.7633587,-0.6497369,-0.45263562,-0.16328952,0.21194233,0.6439875,1.0818405,1.466524,1.7506868,1.9166783,1.976468,1.9553615,1.8791375,1.7640141,1.6155934,1.4339039,1.2172341,0.9699201,0.7038022,0.43572545,0.18467644,-0.034872513,-0.21482171,-0.3507476,-0.44320497,-0.5012155,-0.5392417,-0.5713599,-0.60662967,-0.6472822,-0.6908655,-0.73265743,-0.76900715,-0.79753184,-0.8168995,-0.82797325,-0.8341397,-0.8389136,-0.8404852,-0.8342967,-0.8188154,-0.79617685,-0.7724477,-0.7556206,-0.7496051,-0.75218713,-0.75744617,-0.75555027,-0.7334655,-0.67466044,-0.5575148,-0.35904175,-0.0667581,0.30995938,0.741414,1.1766118,1.5530716,1.8283824,1.9902502,2.045989,2.0166154,1.9282147,1.8012702,1.6472992,1.4683018,1.2604268,1.0228658,0.7619133,0.48977885,0.22457312,-0.012344892,-0.2056,-0.3503024,-0.45028752,-0.51682276,-0.5642733,-0.6041331,-0.64138335,-0.6767139,-0.70836246,-0.73353755,-0.7544553,-0.7752072,-0.7954693,-0.8129013,-0.8258789,-0.83366716,-0.8355607,-0.83280647,-0.8294779,-0.8274913,-0.8252616,-0.82280326,-0.82401973
-0.5357519,-0.5659938,-0.59278756,-0.6175139,-0.63923603,-0.6607671,-0.682811,-0.70389736,-0.725537,-0.7471423,-0.7642464,-0.77354187,-0.7750451,-0.7726285,-0.77139467,-0.7726394,-0.77731514,-0.7901629,-0.81265175,-0.8360083,-0.84011906,-0.80121267,-0.6993483,-0.5179146,-0.24930337,0.09998439,0.51010895,0.94562703,1.3558501,1.6874994,1.9040313,1.9988658,1.9916673,1.9116715,1.7841599,1.6227876,1.4332547,1.2176564,0.9732703,0.7052357,0.4350769,0.18576364,-0.028680047,-0.20138831,-0.3318935,-0.4251343,-0.4924911,-0.5456135,-0.5878136,-0.6222616,-0.6545028,-0.6844582,-0.7087188,-0.72777545,-0.7466527,-0.76835656,-0.7911548,-0.8107898,-0.8242816,-0.83514625,-0.84893465,-0.8646386,-0.87607116,-0.8804636,-0.87916535,-0.87403727,-0.8687254,-0.86219233,-0.8401981,-0.7769272,-0.64268595,-0.41583532,-0.094654866,0.303023,0.7461382,1.1870552,1.5675067,1.8440367,2.0048494,2.062268,2.0358186,1.9446535,1.8045373,1.6262522,1.416597,1.1788841,0.91948754,0.6493311,0.38176548,0.13540462,-0.07236441,-0.2309618,-0.34103546,-0.41790187,-0.47784004,-0.52929664,-0.574845,-0.61642206,-0.6584911,-0.69943696,-0.7325717,-0.7551126,-0.76926756,-0.78006405,-0.79114276,-0.80472285,-0.8214338,-0.8386031,-0.85447454,-0.8693676,-0.8830115,-0.8942673,-0.90275925,-0.9108149,-0.91651285,-0.9029673,-0.8417406,-0.707943,-0.48788148,-0.17482848,0.22339895,0.671938,1.1197612,1.5155236,1.8145952,1.9921408,2.0549433,2.0293713,1.9381993,1.8002201,1.6314465,1.4332448,1.2047617,0.9532776,0.6846603,0.40796924,0.14470485,-0.078826666,-0.25005436,-0.3726303,-0.45640922,-0.51495326,-0.5601149,-0.59968853,-0.63937163,-0.6793776,-0.71576357,-0.7428549,-0.75794476,-0.76787287,-0.77963823,-0.79069525,-0.7986377,-0.8084505,-0.82322043,-0.83847654,-0.84946615,-0.85599715,-0.860796,-0.86715245,-0.8762456,-0.8819373,-0.8677266,-0.807648,-0.67160875,-0.44026896,-0.11550515,0.28322524,0.72267586,1.1560742,1.530364,1.804089,1.9614676,2.00827,1.9636761,1.8565167,1.7133173,1.5488173,1.3638748,1.1504477,0.90646464,0.63898677,0.3629234,0.102225475,-0.12174642,-0.29664385,-0.41871986,-0.4945781,-0.5387467,-0.5699164,-0.60273397,-0.6404697,-0.67816806,-0.7110527,-0.7406814,-0.7690402,-0.79122853,-0.8026568,-0.805817,-0.8069162,-0.8095363,-0.81146127,-0.8105615,-0.8081538,-0.80664957,-0.8087045,-0.8147079,-0.8221399,-0.8241897,-0.803602,-0.7336885,-0.59023654,-0.3571588,-0.0294458,0.37627566,0.8181231,1.2382835,1.5845916,1.8275361,1.9578476,1.9843776,1.9301109,1.8196896,1.67349,1.5034636,1.3101352,1.0917332,0.85004777,0.5902601,0.3275717,0.08471044,-0.12119049,-0.2819875,-0.3952673,-0.46816206,-0.51673734,-0.55418,-0.5880862,-0.6230788,-0.6571248,-0.68645436,-0.7123003,-0.7354238,-0.75592023,-0.775652,-0.7930179,-0.80412304,-0.8084509,-0.80858344,-0.8066874,-0.8037546,-0.80204576,-0.8040679,-0.80909157,-0.81236994,-0.8078262,-0.7879808,-0.7408686,-0.6481851,-0.4859875,-0.2332543,0.11321555,0.52847517,0.9690215,1.3838267,1.7179037,1.9326686,2.0221293,2.0065372,1.9166663,1.7815709,1.6210507,1.4387571,1.2288355,0.99009997,0.7310534,0.46865058,0.22303249,0.010022239,-0.16341189,-0.297268,-0.396311,-0.4685622,-0.52262545,-0.56647646,-0.60564834,-0.644343,-0.68396586,-0.72210175,-0.7576744,-0.79161376,-0.82291573,-0.8461383,-0.8571165,-0.8550943,-0.8412321,-0.82135874,-0.80404234,-0.7971454,-0.80087394,-0.8099758,-0.8223297,-0.83673984,-0.8479124,-0.8382259,-0.77865064,-0.64128006,-0.40924564,-0.08096845,0.32457334,0.7653862,1.1935296,1.5647286,1.8373342,1.990082,2.0317807,1.9863613,1.8784968,1.7269595,1.5422302,1.3286464,1.0885346,0.82666445,0.5546274,0.29262558,0.06169936,-0.12682949,-0.27014548,-0.37224415,-0.4442377,-0.49797687,-0.54250056,-0.5835428,-0.62216264,-0.65780085,-0.6904739,-0.72036624,-0.74737775,-0.7697906,-0.78850996,-0.8063784,-0.82096,-0.82907414,-0.8323028,-0.83212143,-0.82615274,-0.8151513,-0.8072054,-0.80910337,-0.8209861,-0.83501107,-0.8318321,-0.7801811,-0.6451587,-0.40692103,-0.069367304,0.34451595,0.7959872,1.236902,1.6145374,1.8852193,2.0337248,2.0697849,2.0155401,1.8977108,1.7392405,1.5501791,1.3307614,1.0826654,0.81161654,0.5307233,0.26139084,0.024471942,-0.16734277,-0.310157,-0.40635797,-0.4682193,-0.5130787,-0.553274,-0.59456915,-0.6340016,-0.6667472,-0.6952822,-0.72542655,-0.7576455,-0.7853853,-0.80302995,-0.81249845,-0.8224201,-0.8370771,-0.8519729,-0.86494863,-0.87708765,-0.8875677,-0.89770895,-0.90900874,-0.9157845,-0.90486485,-0.8557878,-0.7469312,-0.5627717,-0.2898886,0.07600243,0.513366,0.9721545,1.3911153,1.7210809,1.933967,2.0268376,2.018857,1.936488,1.8048333,1.6438912,1.4624337,1.2571166,1.0221561,0.75982285,0.48592567,0.22742581,0.0058262213,-0.17292272,-0.3104672,-0.4094897,-0.476076,-0.5236686,-0.5681077,-0.6148117,-0.6596025,-0.7000659,-0.73546064,-0.76323634,-0.7819168,-0.7941663,-0.8054924,-0.82024103,-0.8402813,-0.8637036,-0.8842919,-0.8963686,-0.90050155,-0.9024618,-0.9062139,-0.91180646,-0.9131387,-0.89372593,-0.82718956,-0.68368316,-0.44175097,-0.09717226,0.3300573,0.7942751,1.2382452,1.6106255,1.8752702,2.0178275,2.0486765,1.9934789,1.8794082,1.726382,1.5455047,1.3412124,1.1123705,0.86085755,0.59540844,0.33118606,0.090709515,-0.110567994,-0.2679105,-0.3814165,-0.45807126,-0.50997174,-0.5522598,-0.5950624,-0.6393385,-0.68282723,-0.7224626,-0.75549614,-0.7814324,-0.8027186,-0.8228021,-0.8431212,-0.85965085,-0.867826,-0.87079626,-0.87303436,-0.8760755,-0.8816774,-0.8883813,-0.8900615,-0.8806546,-0.85206,-0.78646165,-0.65998703,-0.4526457,-0.15770297,0.21115711,0.6243539,1.041131,1.4140085,1.7055384
