-0.38047242164611816,-0.44408485293388367,-0.49571797251701355,-0.5386742353439331,-0.5757877826690674,-0.6106033325195312,-0.6465858221054077,-0.6838111281394958,-0.7195890545845032,-0.7527517676353455,-0.7849038243293762,-0.8196152448654175,-0.8599177598953247,-0.9067626595497131,-0.9575977325439453,-1.0075479745864868,-1.055005669593811,-1.101750135421753,-1.1480028629302979,-1.1897348165512085,-1.2236812114715576,-1.250586748123169,-1.2651846408843994,-1.2469747066497803,-1.1631593704223633,-0.9797371625900269,-0.6755324602127075,-0.25361356139183044,0.254238486289978,0.7960507273674011,1.3145503997802734,1.7572803497314453,2.08809494972229,2.2969114780426025,2.392395257949829,2.3917288780212402,2.317211866378784,2.1859703063964844,2.00253963470459,1.7663294076919556,1.4856327772140503,1.1854640245437622,0.8974043726921082,0.6437095403671265,0.4344080686569214,0.26981672644615173,0.14421167969703674,0.04708243906497955,-0.035365138202905655,-0.1145993024110794,-0.20111745595932007,-0.3022075891494751,-0.4162624180316925,-0.53599613904953,-0.6536834239959717,-0.7638781070709229,-0.8626448512077332,-0.9491864442825317,-1.0257582664489746,-1.093991994857788,-1.1553423404693604,-1.2113105058670044,-1.2644431591033936,-1.3145681619644165,-1.3517944812774658,-1.3582061529159546,-1.3104171752929688,-1.179582118988037,-0.9425835013389587,-0.5981137156486511,-0.1702766716480255,0.2923143208026886,0.7236237525939941,1.0673662424087524,1.3015838861465454,1.4319466352462769,1.4715269804000854,1.4362094402313232,1.344897747039795,1.213487148284912,1.0501207113265991,0.8574585318565369,0.6409205198287964,0.41297489404678345,0.19148732721805573,-0.007724715396761894,-0.17436379194259644,-0.30248716473579407,-0.3933563828468323,-0.4536000192165375,-0.4913506507873535,-0.5120352506637573,-0.5167489051818848,-0.51081383228302,-0.5093351602554321,-0.5329415798187256,-0.5963959097862244,-0.696567714214325,-0.8109735250473022,-0.9099003076553345,-0.9717240929603577,-0.988486111164093,-0.9654518365859985,-0.9161775708198547,-0.8539071083068848,-0.7900968790054321,-0.7344149351119995,-0.690760612487793,-0.6575933694839478,-0.6312999725341797,-0.6037041544914246,-0.5598709583282471,-0.4805172085762024,-0.34353750944137573,-0.13068221509456635,0.16793636977672577,0.5500224828720093,0.9881105422973633,1.43301522731781,1.8301640748977661,2.1326582431793213,2.3165042400360107,2.383695125579834,2.3494367599487305,2.2323801517486572,2.052220582962036,1.8267078399658203,1.5669348239898682,1.2809170484542847,0.979840099811554,0.678506076335907,0.3968171179294586,0.1538543850183487,-0.04171009361743927,-0.1879025250673294,-0.2892550826072693,-0.3592156171798706,-0.412789911031723,-0.46071869134902954,-0.5059882402420044,-0.5480546951293945,-0.5891425609588623,-0.6305667757987976,-0.6698302030563354,-0.7048851847648621,-0.7368040680885315,-0.7669811844825745,-0.7973326444625854,-0.8303433060646057,-0.8675302267074585,-0.9083054065704346,-0.9484010338783264,-0.9843224287033081,-1.0113269090652466,-1.0157930850982666,-0.9773269891738892,-0.8716477155685425,-0.6782665848731995,-0.39240238070487976,-0.03127042576670647,0.3666708171367645,0.7526242136955261,1.0807878971099854,1.3177416324615479,1.448922872543335,1.4803001880645752,1.4347249269485474,1.3360995054244995,1.1966969966888428,1.0259053707122803,0.8353966474533081,0.6350411176681519,0.4327060282230377,0.23689629137516022,0.0591309629380703,-0.08905649185180664,-0.20136979222297668,-0.280513197183609,-0.3345000743865967,-0.3707633912563324,-0.39800405502319336,-0.42479056119918823,-0.4549381732940674,-0.48798397183418274,-0.5232164859771729,-0.5614669919013977,-0.6019283533096313,-0.6415114998817444,-0.6769222617149353,-0.7064981460571289,-0.7302624583244324,-0.748129665851593,-0.7596817016601562,-0.7659841775894165,-0.77277672290802,-0.7839575409889221,-0.7958164215087891,-0.8038341999053955,-0.8046882152557373,-0.7945510149002075,-0.7658374309539795,-0.7027156352996826,-0.5820184946060181,-0.37652069330215454,-0.06769992411136627,0.33774906396865845,0.8016406297683716,1.2643673419952393,1.6666096448898315,1.9635900259017944,2.1331417560577393,2.178895950317383,2.1203503608703613,1.9829984903335571,1.7894361019134521,1.5523756742477417,1.2803919315338135,0.9877251386642456,0.6978194117546082,0.43630462884902954,0.21706275641918182,0.039399489760398865,-0.10086480528116226,-0.20631901919841766,-0.28307202458381653,-0.34194305539131165,-0.39372122287750244,-0.44742417335510254,-0.5073071718215942,-0.5726971626281738,-0.643805205821991,-0.7194338440895081,-0.7949817180633545,-0.8659543395042419,-0.9289382100105286,-0.9823381900787354,-1.0260686874389648,-1.0605520009994507,-1.086216926574707,-1.10097336769104,-1.0979523658752441,-1.0620173215866089,-0.9712902903556824,-0.8040098547935486,-0.5444629192352295,-0.19417311251163483,0.22263196110725403,0.6652491688728333,1.0867516994476318,1.4430373907089233,1.7001334428787231,1.8451733589172363,1.8851568698883057,1.8362518548965454,1.716706395149231,1.542846918106079,1.331477165222168,1.0954339504241943,0.8427955508232117,0.5886446833610535,0.35122573375701904,0.14401371777057648,-0.02669689431786537,-0.1623121052980423,-0.26637646555900574,-0.34604132175445557,-0.41188162565231323,-0.4738518297672272,-0.5392390489578247,-0.6070563197135925,-0.6725150942802429,-0.7353527545928955,-0.7967320084571838,-0.8546925187110901,-0.9056851267814636,-0.9464030265808105,-0.9730244874954224,-0.986118495464325,-0.9906625151634216,-0.9870074391365051,-0.9744865298271179,-0.9586203694343567,-0.9456362724304199,-0.9362214207649231,-0.9307733774185181,-0.9331771731376648,-0.9442559480667114,-0.9554266333580017,-0.9471895098686218,-0.8931044340133667,-0.7626535296440125,-0.5247562527656555,-0.16319692134857178,0.3060155212879181,0.8323122262954712,1.3415998220443726,1.7565668821334839,2.0295212268829346,2.1584274768829346,2.169405698776245,2.095963954925537,1.9686377048492432,1.8053503036499023,1.610442876815796,1.3872593641281128,1.1433959007263184,0.8896514177322388,0.6425562500953674,0.4194437563419342,0.23188769817352295,0.08336550742387772,-0.03170006722211838,-0.12653206288814545,-0.21606339514255524,-0.3078932464122772,-0.40018126368522644,-0.4880324900150299,-0.5693743824958801,-0.6427028179168701,-0.7027992010116577,-0.7453910708427429,-0.7728427052497864,-0.7927128672599792,-0.8145043849945068,-0.8438531160354614,-0.8791863918304443,-0.9151793718338013,-0.9428232908248901,-0.9490020871162415,-0.9168691635131836,-0.8275691270828247,-0.664882481098175,-0.41644808650016785,-0.0823347344994545,0.3172585964202881,0.7415364980697632,1.1338773965835571,1.444846272468567,1.6466176509857178,1.7303029298782349,1.706162691116333,1.5981029272079468,1.4335086345672607,1.2340244054794312,1.0100406408309937,0.7660081386566162,0.5119584798812866,0.2687935531139374,0.058600232005119324,-0.10618129372596741,-0.2253248691558838,-0.3082033693790436,-0.36715006828308105,-0.4141847491264343,-0.4569765329360962,-0.49810972809791565,-0.5404483675956726,-0.5861994028091431,-0.6361514329910278,-0.68873131275177,-0.7380058765411377,-0.7778443694114685,-0.8056594729423523,-0.8227646350860596,-0.831298828125,-0.8323090672492981,-0.8288734555244446,-0.8252273797988892,-0.8226755261421204,-0.8188615441322327,-0.8116820454597473,-0.803097128868103,-0.7944172024726868,-0.780883252620697,-0.7494550347328186,-0.6804680228233337,-0.5548475384712219,-0.35419461131095886,-0.06437663733959198,0.3098459243774414,0.7375264763832092,1.1693686246871948,1.5560513734817505,1.8604085445404053,2.0595147609710693,2.1478962898254395,2.136824369430542,2.0429847240448,1.8808982372283936,1.6613023281097412,1.3938323259353638,1.092360019683838,0.776258647441864,0.46799880266189575,0.18667060136795044,-0.05601271614432335,-0.25332674384117126,-0.40363800525665283,-0.5117233991622925,-0.5880329608917236,-0.6485646963119507,-0.7083405256271362,-0.7711074948310852,-0.8302461504936218,-0.8767642378807068,-0.9078276753425598,-0.9283117651939392,-0.9408830404281616,-0.9459080100059509,-0.9474287033081055,-0.9488430619239807,-0.9504252672195435,-0.9522392153739929,-0.9522355794906616,-0.9410934448242188,-0.9034780263900757,-0.8208885192871094,-0.670062780380249,-0.43402576446533203,-0.11709316074848175,0.26051852107048035,0.6671155691146851,1.0584484338760376,1.3869984149932861,1.615699052810669,1.7321193218231201,1.7469031810760498,1.6827749013900757,1.5635862350463867,1.4040480852127075,1.211841344833374,0.9932761788368225,0.7596104145050049,0.5298478603363037,0.32244163751602173,0.14730378985404968,0.0021398586686700583,-0.11935212463140488,-0.21815694868564606,-0.2989698648452759,-0.37065109610557556,-0.4332590103149414,-0.48248091340065,-0.5207875967025757,-0.5520679950714111,-0.5762859582901001,-0.5947657823562622,-0.6092349886894226,-0.6205021142959595,-0.6326481103897095,-0.6495338082313538,-0.6717769503593445,-0.7006401419639587,-0.7368433475494385,-0.7758956551551819,-0.8135057687759399,-0.8509829640388489,-0.8892767429351807,-0.9239709377288818,-0.9423871636390686,-0.921550452709198,-0.8364137411117554,-0.6678304672241211,-0.40744489431381226,-0.06382012367248535,0.3379155397415161,0.7586514353752136,1.1498050689697266,1.4653632640838623,1.6770572662353516,1.7787541151046753,1.780015468597412,1.70076322555542,1.5618290901184082,1.379975438117981,1.1705111265182495,0.9438660740852356,0.7097156643867493,0.4831283986568451,0.27693623304367065,0.10007119923830032,-0.03922145068645477,-0.14096711575984955,-0.21849815547466278,-0.2893427014350891,-0.36346250772476196,-0.44278284907341003,-0.5270258188247681,-0.6131555438041687,-0.6938526034355164,-0.7628188729286194,-0.8179374933242798,-0.8579802513122559,-0.8811714053153992,-0.8893639445304871,-0.8890253305435181,-0.8843536376953125,-0.8743724226951599,-0.8562754392623901,-0.8220437169075012
1.175411581993103,0.9072848558425903,0.62782222032547,0.3500276505947113,0.0886511355638504,-0.14206820726394653,-0.3317587077617645,-0.47361916303634644,-0.5684701800346375,-0.627964973449707,-0.666492760181427,-0.6925336718559265,-0.7114206552505493,-0.7290438413619995,-0.7472527027130127,-0.7662089467048645,-0.7861424088478088,-0.8051488399505615,-0.8231791257858276,-0.8423270583152771,-0.863343358039856,-0.8850552439689636,-0.9049821496009827,-0.9209760427474976,-0.9330378770828247,-0.9396754503250122,-0.9301188588142395,-0.8842755556106567,-0.7782264947891235,-0.5901876091957092,-0.30642271041870117,0.07007020711898804,0.508428692817688,0.9573274254798889,1.3632956743240356,1.681162714958191,1.8842673301696777,1.9692274332046509,1.95003342628479,1.8480796813964844,1.685600996017456,1.4808374643325806,1.2448076009750366,0.9845733046531677,0.7085071206092834,0.43032413721084595,0.16903695464134216,-0.05759934335947037,-0.24201688170433044,-0.38693907856941223,-0.4946078658103943,-0.5664102435112,-0.6102420091629028,-0.6385791301727295,-0.6613982915878296,-0.6840998530387878,-0.7106643915176392,-0.7406038045883179,-0.7687682509422302,-0.7923821806907654,-0.8129841089248657,-0.8339840173721313,-0.8540751934051514,-0.8687641620635986,-0.8777452707290649,-0.8839077353477478,-0.8911595344543457,-0.8968738913536072,-0.8916813135147095,-0.8672622442245483,-0.8102782368659973,-0.6984924077987671,-0.5088360905647278,-0.22660759091377258,0.145802840590477,0.5847535729408264,1.0418756008148193,1.4516760110855103,1.7609584331512451,1.943769097328186,1.9982422590255737,1.9445562362670898,1.8134957551956177,1.6311722993850708,1.4158744812011719,1.1830004453659058,0.9393622875213623,0.6844922304153442,0.4264058470726013,0.17938905954360962,-0.04564735293388367,-0.23767989873886108,-0.3883855640888214,-0.49855297803878784,-0.5721806287765503,-0.6155557632446289,-0.639481246471405,-0.6562131643295288,-0.6762292385101318,-0.6997090578079224,-0.7192132472991943,-0.7339621186256409,-0.7476268410682678,-0.7605606913566589,-0.7751398086547852,-0.7945490479469299,-0.8170455694198608,-0.8406142592430115,-0.8652845025062561,-0.8912186026573181,-0.9185695648193359,-0.9432706236839294,-0.9521373510360718,-0.9233827590942383,-0.829155445098877,-0.643730640411377,-0.35393762588500977,0.034433551132678986,0.4926416277885437,0.9694738388061523,1.4004149436950684,1.730009913444519,1.9310797452926636,2.00437331199646,1.9698697328567505,1.8553335666656494,1.6876341104507446,1.4884254932403564,1.2672408819198608,1.0244959592819214,0.7649181485176086,0.5017229914665222,0.2505590617656708,0.025608360767364502,-0.16043266654014587,-0.30016350746154785,-0.3941796123981476,-0.4497961103916168,-0.48054182529449463,-0.50223308801651,-0.5268378853797913,-0.5587325096130371,-0.5952534675598145,-0.6334081888198853,-0.676379382610321,-0.7277596592903137,-0.7825869917869568,-0.833000123500824,-0.8748732209205627,-0.9090520143508911,-0.9401797652244568,-0.969207763671875,-0.9930156469345093,-1.0114147663116455,-1.0296634435653687,-1.0491026639938354,-1.0546940565109253,-1.020542860031128,-0.9208968281745911,-0.731745183467865,-0.43906912207603455,-0.052456680685281754,0.38931381702423096,0.8240774869918823,1.1795510053634644,1.4171299934387207,1.5797603130340576,1.7286232709884644,1.8553918600082397,1.9156612157821655,1.8856205940246582,1.7697699069976807,1.5889368057250977,1.3627877235412598,1.1060142517089844,0.831280529499054,0.5504970550537109,0.2788854241371155,0.03336675092577934,-0.17559553682804108,-0.3448179364204407,-0.47223496437072754,-0.5597778558731079,-0.6150624752044678,-0.6440691351890564,-0.6536328792572021,-0.6567093133926392,-0.6639537215232849,-0.678820013999939,-0.7014067769050598,-0.7274173498153687,-0.751042902469635,-0.7690423130989075,-0.780426561832428,-0.7900039553642273,-0.8023044466972351,-0.8146271109580994,-0.8256382346153259,-0.8377411365509033,-0.8544896841049194,-0.8761366605758667,-0.8902351260185242,-0.8761717081069946,-0.811503529548645,-0.6732842326164246,-0.4424152672290802,-0.1087137833237648,0.3155788481235504,0.7852669358253479,1.2343041896820068,1.6043819189071655,1.8628963232040405,2.0001142024993896,2.022495746612549,1.9485079050064087,1.8032690286636353,1.611473798751831,1.3893321752548218,1.14401113986969,0.881501317024231,0.610567033290863,0.3447532653808594,0.10126665234565735,-0.10628566145896912,-0.27221646904945374,-0.39943796396255493,-0.4962710738182068,-0.5688617825508118,-0.6207351088523865,-0.6566028594970703,-0.6805317997932434,-0.6965990662574768,-0.7091571092605591,-0.721985399723053,-0.73941969871521,-0.7608393430709839,-0.7825775742530823,-0.8044046759605408,-0.8254477977752686,-0.8439919352531433,-0.8590674996376038,-0.8690210580825806,-0.875460684299469,-0.882027804851532,-0.8877536058425903,-0.8839407563209534,-0.8509359359741211,-0.7600780129432678,-0.5841417908668518,-0.3093193471431732,0.058282576501369476,0.4932911694049835,0.9531629085540771,1.3799896240234375,1.7173328399658203,1.9336328506469727,2.025444507598877,2.0094430446624756,1.91015625,1.7515003681182861,1.547806978225708,1.294906497001648,0.9784939885139465,0.5950734615325928,0.1911565214395523,-0.14706286787986755,-0.37439844012260437,-0.5067808032035828,-0.5801825523376465,-0.6242342591285706,-0.6532277464866638,-0.6743754148483276,-0.6929193139076233,-0.7117767333984375,-0.7330541610717773,-0.7548055052757263,-0.7731344103813171,-0.7849504351615906,-0.7901936769485474,-0.7935503721237183,-0.7989957928657532,-0.8070592880249023,-0.8167746067047119,-0.8277803659439087,-0.8420410752296448,-0.8600820302963257,-0.8732364177703857,-0.8620875477790833,-0.8030462861061096,-0.6741269826889038,-0.45729976892471313,-0.14611877501010895,0.24830062687397003,0.6975870728492737,1.1533156633377075,1.5575981140136719,1.8626042604446411,2.0421242713928223,2.0939459800720215,2.0360803604125977,1.8995970487594604,1.7113940715789795,1.4881141185760498,1.2387837171554565,0.9675002098083496,0.6846866011619568,0.4051195979118347,0.14151614904403687,-0.09594292938709259,-0.29989129304885864,-0.46383216977119446,-0.5868207812309265,-0.6734383702278137,-0.7296023964881897,-0.7647083401679993,-0.7890821695327759,-0.8089563846588135,-0.8266486525535583,-0.8423375487327576,-0.854943037033081,-0.8641787171363831,-0.8728494644165039,-0.8850345015525818,-0.901091456413269,-0.9151858687400818,-0.9228320121765137,-0.9269917607307434,-0.9316856861114502,-0.9377568960189819,-0.9431437253952026,-0.938879668712616,-0.906677782535553,-0.8212170004844666,-0.6556110382080078,-0.3944180905818939,-0.03947526589035988,0.3903653919696808,0.8553541898727417,1.302709698677063,1.6785569190979004,1.9417322874069214,2.0781471729278564,2.097679376602173,2.0211660861968994,1.8729448318481445,1.6780965328216553,1.4502614736557007,1.1919612884521484,0.9115606546401978,0.6214853525161743,0.3349008560180664,0.06985775381326675,-0.1584058552980423,-0.3432348668575287,-0.48403817415237427,-0.5824434757232666,-0.6445616483688354,-0.6832028031349182,-0.7085710167884827,-0.726637601852417,-0.7437734007835388,-0.7627422213554382,-0.7827169895172119,-0.8007106184959412,-0.8142845034599304,-0.8252333402633667,-0.8361663222312927,-0.849928081035614,-0.8684569001197815,-0.8892860412597656,-0.9083195924758911,-0.9241193532943726,-0.9368503093719482,-0.9420890808105469,-0.9260407090187073,-0.8650134801864624,-0.7288917303085327,-0.49335065484046936,-0.15651237964630127,0.2587578594684601,0.7167637944221497,1.172469139099121,1.573270320892334,1.8725372552871704,2.043837308883667,2.089134693145752,2.0325734615325928,1.90360426902771,1.7279224395751953,1.5211234092712402,1.2856701612472534,1.022420048713684,0.7402503490447998,0.4530193507671356,0.1780947595834732,-0.06569023430347443,-0.2647096514701843,-0.4151909053325653,-0.5221596360206604,-0.5924628376960754,-0.6326650977134705,-0.6532201766967773,-0.6661766767501831,-0.6796586513519287,-0.698988139629364,-0.7271052002906799,-0.7587094306945801,-0.7852752208709717,-0.8037394881248474,-0.8143202066421509,-0.8220226764678955,-0.8327494263648987,-0.8449169993400574,-0.854034423828125,-0.8584412336349487,-0.859427809715271,-0.8598613739013672,-0.8630920052528381,-0.8696575164794922,-0.869744598865509,-0.8426432013511658,-0.7642091512680054,-0.6114771962165833,-0.36715012788772583,-0.02637009136378765,0.3963128626346588,0.8611252903938293,1.3095375299453735,1.6834619045257568,1.94463312625885,2.080411434173584,2.0998616218566895,2.027775764465332,1.8883997201919556,1.698358178138733,1.472561240196228,1.2198379039764404,0.944356381893158,0.6563975811004639,0.3717425465583801,0.10571125894784927,-0.12860214710235596,-0.3190931975841522,-0.4568883180618286,-0.5443058609962463,-0.5938965678215027,-0.6215435266494751,-0.6418887376785278,-0.6635254621505737,-0.687788724899292,-0.7123040556907654,-0.7366586327552795,-0.7619439363479614,-0.7859204411506653,-0.8060670495033264,-0.8225653767585754,-0.8335868120193481,-0.8378856182098389,-0.8414286375045776,-0.849582314491272,-0.8617693185806274,-0.8773490786552429,-0.8851851224899292,-0.8578276038169861,-0.7704793214797974,-0.6089454889297485,-0.36752352118492126,-0.05167835205793381,0.31995540857315063,0.7135400176048279,1.0873136520385742,1.4004846811294556,1.6178473234176636,1.7215678691864014,1.7185909748077393,1.6322635412216187,1.4891667366027832,1.311300277709961,1.111732840538025,0.896037757396698,0.6690550446510315,0.4368175268173218,0.20824317634105682,-0.002388708759099245,-0.18227288126945496,-0.32394880056381226,-0.42422646284103394,-0.48848143219947815,-0.5274989604949951,-0.5520643591880798,-0.5722241401672363,-0.5919631123542786,-0.6103344559669495,-0.6283265352249146,-0.6469689011573792,-0.66468346118927,-0.6795353889465332,-0.6926165819168091,-0.7063093185424805,-0.7192089557647705
0.0028977906331419945,-0.21796278655529022,-0.40164080262184143,-0.5377098917961121,-0.6276570558547974,-0.6834222674369812,-0.7193141579627991,-0.7463858723640442,-0.7693782448768616,-0.7879037857055664,-0.8035240173339844,-0.8196799755096436,-0.8376429080963135,-0.8573800325393677,-0.8769631385803223,-0.8911410570144653,-0.8904843926429749,-0.8591564893722534,-0.7763690948486328,-0.6212819814682007,-0.37957504391670227,-0.05211680382490158,0.33561620116233826,0.7357527613639832,1.0967298746109009,1.376372218132019,1.5504448413848877,1.6180037260055542,1.5942987203598022,1.5027481317520142,1.3652664422988892,1.196414589881897,1.0059733390808105,0.7973418831825256,0.5682087540626526,0.3222179710865021,0.07617738097906113,-0.14923740923404694,-0.33991703391075134,-0.4915039837360382,-0.6047237515449524,-0.6807020902633667,-0.7266678810119629,-0.7540643811225891,-0.7720513939857483,-0.788104236125946,-0.8056776523590088,-0.8246550559997559,-0.8432398438453674,-0.8580685257911682,-0.869027853012085,-0.8774952292442322,-0.8776516914367676,-0.8550581932067871,-0.7901944518089294,-0.6607070565223694,-0.447489857673645,-0.14595387876033783,0.2303098440170288,0.6449376940727234,1.0369372367858887,1.3478964567184448,1.545388102531433,1.6236640214920044,1.6025567054748535,1.513897180557251,1.3836885690689087,1.2275516986846924,1.051113486289978,0.8521169424057007,0.6274523735046387,0.3827970027923584,0.13227248191833496,-0.10801951587200165,-0.32005226612091064,-0.48854273557662964,-0.6081622242927551,-0.6840757727622986,-0.7289366126060486,-0.7566598653793335,-0.7768576741218567,-0.7948234677314758,-0.8114970922470093,-0.8239610195159912,-0.8313579559326172,-0.8362444639205933,-0.8418917059898376,-0.8498475551605225,-0.8559656739234924,-0.8456356525421143,-0.7928731441497803,-0.6723508834838867,-0.4694567322731018,-0.18037596344947815,0.1830795705318451,0.5871565341949463,0.9788743257522583,1.3024134635925293,1.520375370979309,1.6227962970733643,1.6219406127929688,1.5440268516540527,1.4186779260635376,1.2646605968475342,1.0887198448181152,0.8908458352088928,0.6682634353637695,0.42527318000793457,0.1764545738697052,-0.06044295057654381,-0.2708176076412201,-0.44366639852523804,-0.5731200575828552,-0.6588248014450073,-0.7059856057167053,-0.7294286489486694,-0.7447937726974487,-0.7607665657997131,-0.7816485166549683,-0.8052247762680054,-0.8259902000427246,-0.8410700559616089,-0.8529201149940491,-0.8672694563865662,-0.8825250864028931,-0.8868544101715088,-0.8610453605651855,-0.7810920476913452,-0.6249306201934814,-0.37927815318107605,-0.04851992428302765,0.33978691697120667,0.7417118549346924,1.108420968055725,1.3959053754806519,1.575507402420044,1.6425042152404785,1.6144908666610718,1.5214306116104126,1.388838291168213,1.2279044389724731,1.0412142276763916,0.8282320499420166,0.5912708640098572,0.3395896852016449,0.0872911587357521,-0.14794737100601196,-0.346873015165329,-0.4962117075920105,-0.5968180298805237,-0.6593888401985168,-0.6944380402565002,-0.7137364745140076,-0.7298991680145264,-0.7503473162651062,-0.7760086059570312,-0.8009446859359741,-0.8193948864936829,-0.8327570557594299,-0.8450577259063721,-0.8584766387939453,-0.8706364035606384,-0.8724973797798157,-0.8501583337783813,-0.782063901424408,-0.6416996121406555,-0.41444459557533264,-0.10253549367189407,0.2760540544986725,0.6810402870178223,1.057742714881897,1.3567332029342651,1.5472025871276855,1.6234261989593506,1.6037966012954712,1.5182548761367798,1.3898348808288574,1.230708360671997,1.0474296808242798,0.8422598242759705,0.6154133081436157,0.37091171741485596,0.12433350086212158,-0.1032254695892334,-0.2974229156970978,-0.44985145330429077,-0.5577757954597473,-0.6269655823707581,-0.6685904264450073,-0.6933669447898865,-0.710319995880127,-0.7259522080421448,-0.7424308061599731,-0.760604739189148,-0.7796384692192078,-0.7978235483169556,-0.813396692276001,-0.8238014578819275,-0.8279402256011963,-0.8184055089950562,-0.7777459025382996,-0.683104932308197,-0.5113526582717896,-0.2522072196006775,0.08490270376205444,0.4705547094345093,0.8544635772705078,1.178766131401062,1.4028089046478271,1.5163779258728027,1.5332609415054321,1.476955533027649,1.3710776567459106,1.2338865995407104,1.0739270448684692,0.8910151124000549,0.6834453344345093,0.45472121238708496,0.21551993489265442,-0.02018900215625763,-0.23758593201637268,-0.4219985902309418,-0.5632428526878357,-0.6593926548957825,-0.7183985710144043,-0.7531421780586243,-0.7778372764587402,-0.8036203384399414,-0.8298697471618652,-0.8518631458282471,-0.8705435395240784,-0.8891584277153015,-0.9079490303993225,-0.923388659954071,-0.9338804483413696,-0.9375342726707458,-0.9231696128845215,-0.8700256943702698,-0.7511633038520813,-0.5377914309501648,-0.21073202788829803,0.2230563461780548,0.7208467125892639,1.2107516527175903,1.6153841018676758,1.8834062814712524,2.00718355178833,2.0099339485168457,1.924420952796936,1.7827078104019165,1.6051976680755615,1.3964126110076904,1.1557388305664062,0.8834539651870728,0.5836426019668579,0.2726386785507202,-0.024485930800437927,-0.28479570150375366,-0.49373868107795715,-0.6488918662071228,-0.7562552690505981,-0.829017698764801,-0.884609580039978,-0.9356889128684998,-0.9882771372795105,-1.0393216609954834,-1.0824662446975708,-1.1137861013412476,-1.130968689918518,-1.1372506618499756,-1.1356676816940308,-1.1278479099273682,-1.1081751585006714,-1.0520426034927368,-0.928001344203949,-0.7115013003349304,-0.3960680663585663,-0.001593907130882144,0.4308706820011139,0.8502711057662964,1.206195592880249,1.4595446586608887,1.596664547920227,1.6275489330291748,1.5748311281204224,1.4651421308517456,1.3183202743530273,1.144995927810669,0.9483364224433899,0.7278398871421814,0.4847763180732727,0.2318473905324936,-0.008031190373003483,-0.2185935378074646,-0.3901757001876831,-0.5185397267341614,-0.6080737709999084,-0.6657676696777344,-0.7014378309249878,-0.7260053753852844,-0.7460779547691345,-0.7645829319953918,-0.7813338041305542,-0.7929225564002991,-0.7978724241256714,-0.8005807399749756,-0.8061859607696533,-0.815632164478302,-0.8223679661750793,-0.8100700378417969,-0.7541180849075317,-0.6229135394096375,-0.3871369957923889,-0.03580005466938019,0.40930071473121643,0.8910444974899292,1.3366632461547852,1.6835920810699463,1.8971017599105835,1.9724029302597046,1.9298721551895142,1.806614637374878,1.634466290473938,1.4280905723571777,1.1909817457199097,0.922927975654602,0.628302276134491,0.3188241720199585,0.01074637658894062,-0.2776157557964325,-0.5269100666046143,-0.7192789316177368,-0.8483949899673462,-0.926077127456665,-0.9725130796432495,-1.0026689767837524,-1.0241469144821167,-1.0404359102249146,-1.0536860227584839,-1.064776062965393,-1.0729385614395142,-1.0793770551681519,-1.0864979028701782,-1.093245029449463,-1.0912978649139404,-1.0639171600341797,-0.9892313480377197,-0.840111494064331,-0.5901544690132141,-0.23104643821716309,0.21607834100723267,0.704755425453186,1.1764171123504639,1.5719586610794067,1.8475496768951416,1.9881610870361328,2.0037646293640137,1.921938180923462,1.7777338027954102,1.5964049100875854,1.3855366706848145,1.1412672996520996,0.8604905605316162,0.5497213006019592,0.2273663729429245,-0.07856379449367523,-0.3422570824623108,-0.5501542091369629,-0.7002990245819092,-0.7993900775909424,-0.8578493595123291,-0.8881183862686157,-0.9050476551055908,-0.9194287657737732,-0.9353298544883728,-0.9526615738868713,-0.969865083694458,-0.9848378300666809,-0.9959116578102112,-1.007785439491272,-1.0255943536758423,-1.0401378870010376,-1.0267468690872192,-0.9533853530883789,-0.7877496480941772,-0.5062556266784668,-0.1103920042514801,0.3659225106239319,0.8667528033256531,1.327139139175415,1.6874533891677856,1.910073161125183,1.9904589653015137,1.953019142150879,1.8359791040420532,1.6728931665420532,1.478685736656189,1.252569317817688,0.9910211563110352,0.6980288028717041,0.38766568899154663,0.0801118016242981,-0.20243345201015472,-0.4407258629798889,-0.6238359212875366,-0.7504422664642334,-0.8295590281486511,-0.8787828087806702,-0.9148860573768616,-0.9463793039321899,-0.9748851656913757,-0.9994877576828003,-1.0195410251617432,-1.0359866619110107,-1.0503015518188477,-1.0619275569915771,-1.069669246673584,-1.0725476741790771,-1.0621824264526367,-1.0164748430252075,-0.9053850173950195,-0.7008737325668335,-0.3854719400405884,0.03549204394221306,0.5252925753593445,1.0238347053527832,1.4657050371170044,1.797953724861145,1.9923573732376099,2.0480120182037354,1.9892257452011108,1.8533663749694824,1.6727854013442993,1.4629755020141602,1.2224125862121582,0.9451501369476318,0.6328938603401184,0.3035854697227478,-0.011625492013990879,-0.28658783435821533,-0.509255051612854,-0.677564263343811,-0.7960313558578491,-0.8732051253318787,-0.9201905131340027,-0.9504576921463013,-0.9767574667930603,-1.004759669303894,-1.031415343284607,-1.0525047779083252,-1.0680980682373047,-1.0793300867080688,-1.0875171422958374,-1.0955939292907715,-1.0985029935836792,-1.0768159627914429,-1.0031567811965942,-0.844783365726471,-0.5753664374351501,-0.19318361580371857,0.27774864435195923,0.790658712387085,1.2805674076080322,1.6818567514419556,1.9509600400924683,2.075932502746582,2.0721588134765625,1.9728782176971436,1.8123326301574707,1.6135679483413696,1.3876644372940063,1.1335831880569458,0.8463178873062134,0.5307603478431702,0.20668058097362518,-0.0960736945271492,-0.35529497265815735,-0.5633413195610046,-0.7176135778427124,-0.8224977254867554,-0.8921672701835632,-0.9416821002960205,-0.9806021451950073,-1.012116551399231,-1.035722255706787,-1.0544428825378418,-1.0743155479431152,-1.0963046550750732,-1.119242787361145,-1.1421267986297607,-1.1581978797912598,-1.154296875,-1.1078323125839233,-0.9889856576919556,-0.7710264325141907,-0.43952512741088867,-0.006312976591289043,0.48860445618629456,0.9893874526023865,1.4363296031951904
-0.7198042869567871,-0.7554635405540466,-0.7642189860343933,-0.7606401443481445,-0.7567815184593201,-0.7594566345214844,-0.7684971690177917,-0.7821303009986877,-0.7954297065734863,-0.8039723634719849,-0.8093929886817932,-0.8144159913063049,-0.8206183910369873,-0.8264615535736084,-0.8234807848930359,-0.7939060926437378,-0.7110272645950317,-0.5478258728981018,-0.28610897064208984,0.07460326701402664,0.5098586082458496,0.9711819887161255,1.3940238952636719,1.717023491859436,1.901310920715332,1.9370187520980835,1.839836835861206,1.6425424814224243,1.3813424110412598,1.0821958780288696,0.764427900314331,0.4490976333618164,0.15687184035778046,-0.09825855493545532,-0.30854275822639465,-0.4654145836830139,-0.567546546459198,-0.6259706020355225,-0.6509939432144165,-0.6528435349464417,-0.6456298232078552,-0.6391481161117554,-0.637212336063385,-0.6383298635482788,-0.6392125487327576,-0.640755295753479,-0.6453216075897217,-0.6547471880912781,-0.6709336042404175,-0.6936810612678528,-0.7149115204811096,-0.7160353660583496,-0.67242431640625,-0.5559938549995422,-0.3445664048194885,-0.03301287069916725,0.36245471239089966,0.7999180555343628,1.2204632759094238,1.5667939186096191,1.7973430156707764,1.8913859128952026,1.8505010604858398,1.6974155902862549,1.4631483554840088,1.1767961978912354,0.8630054593086243,0.5426182150840759,0.2304476648569107,-0.06323286145925522,-0.32029587030410767,-0.5250071287155151,-0.6747622489929199,-0.7729126811027527,-0.8309885263442993,-0.862290620803833,-0.8773426413536072,-0.889356791973114,-0.9069985151290894,-0.9291524291038513,-0.9494384527206421,-0.962361216545105,-0.9667307138442993,-0.9637462496757507,-0.9559206962585449,-0.9457231163978577,-0.9326921105384827,-0.9087784290313721,-0.8516988754272461,-0.7305260300636292,-0.5214840769767761,-0.21601331233978271,0.1772240400314331,0.6291323900222778,1.0913034677505493,1.5068845748901367,1.824745535850525,2.01046085357666,2.0555100440979004,1.9777581691741943,1.8047702312469482,1.55923593044281,1.2616581916809082,0.9330298900604248,0.5936191082000732,0.2629259526729584,-0.04058819264173508,-0.299413800239563,-0.5026388764381409,-0.649367094039917,-0.7469891309738159,-0.8092954754829407,-0.8499300479888916,-0.8785637021064758,-0.9032110571861267,-0.932426929473877,-0.9685512781143188,-1.0052485466003418,-1.0352354049682617,-1.053606390953064,-1.0628069639205933,-1.0700434446334839,-1.0769258737564087,-1.0766313076019287,-1.0533980131149292,-0.9836260080337524,-0.8389348983764648,-0.5942863821983337,-0.24037794768810272,0.20697543025016785,0.7049151659011841,1.194278359413147,1.6131607294082642,1.9090794324874878,2.054263114929199,2.0521535873413086,1.9288307428359985,1.7204829454421997,1.4587113857269287,1.1640667915344238,0.852563202381134,0.5390874743461609,0.23761436343193054,-0.03637383133172989,-0.2665051817893982,-0.44334104657173157,-0.5691837072372437,-0.6509467363357544,-0.6976473331451416,-0.7243353724479675,-0.7455440163612366,-0.767437756061554,-0.7903706431388855,-0.8137755393981934,-0.8365126252174377,-0.8568490147590637,-0.8757631182670593,-0.8965601921081543,-0.9205398559570312,-0.9441215395927429,-0.9528192281723022,-0.9206924438476562,-0.818942129611969,-0.6221831440925598,-0.3168182671070099,0.09092837572097778,0.5671396255493164,1.0476924180984497,1.463626503944397,1.7665241956710815,1.9314173460006714,1.9567325115203857,1.8595631122589111,1.6657357215881348,1.4034230709075928,1.0994826555252075,0.7795365452766418,0.46651574969291687,0.1764761060476303,-0.07916725426912308,-0.2912026047706604,-0.45461374521255493,-0.5707383155822754,-0.6469438672065735,-0.6941424608230591,-0.726477861404419,-0.7571155428886414,-0.7912178039550781,-0.8259784579277039,-0.8560581207275391,-0.8800024390220642,-0.9003177881240845,-0.9187431931495667,-0.9350544810295105,-0.9493075609207153,-0.9614779949188232,-0.9665800929069519,-0.9504590034484863,-0.8896725177764893,-0.7554998993873596,-0.5217551589012146,-0.17718036472797394,0.26229339838027954,0.7538419365882874,1.2384907007217407,1.6526302099227905,1.9442778825759888,2.08951997756958,2.0907950401306152,1.9660730361938477,1.7419722080230713,1.449303150177002,1.1197752952575684,0.7795379161834717,0.44719433784484863,0.13754898309707642,-0.13665232062339783,-0.3630164861679077,-0.5313563346862793,-0.6414535045623779,-0.7069239020347595,-0.7476937770843506,-0.7794877886772156,-0.809357762336731,-0.8376842737197876,-0.8641325831413269,-0.8880242705345154,-0.9066149592399597,-0.9212653040885925,-0.9376966953277588,-0.95924311876297,-0.9850273132324219,-1.0069118738174438,-1.0083956718444824,-0.9648814797401428,-0.843203067779541,-0.6167830228805542,-0.28210026025772095,0.1408408284187317,0.6126337647438049,1.0761841535568237,1.4652005434036255,1.7300264835357666,1.8553436994552612,1.8521885871887207,1.7439813613891602,1.5555797815322876,1.310487985610962,1.0313938856124878,0.7366780638694763,0.4423310160636902,0.1651783287525177,-0.08121448010206223,-0.28682181239128113,-0.4441046416759491,-0.5549264550209045,-0.62897127866745,-0.674860417842865,-0.7021711468696594,-0.7230618596076965,-0.7469214797019958,-0.7756567001342773,-0.8029950261116028,-0.824531614780426,-0.8435978889465332,-0.8644280433654785,-0.8893749713897705,-0.9173821210861206,-0.941232442855835,-0.9484671950340271,-0.9223867654800415,-0.8400483727455139,-0.6759527921676636,-0.41410622000694275,-0.055315252393484116,0.37884289026260376,0.8426321148872375,1.274977207183838,1.6197304725646973,1.8418114185333252,1.9291186332702637,1.8890626430511475,1.745516300201416,1.527468204498291,1.2582391500473022,0.9577358961105347,0.6467870473861694,0.34493857622146606,0.06667759269475937,-0.17860831320285797,-0.3815063238143921,-0.5335962176322937,-0.6347799897193909,-0.6938823461532593,-0.7255744338035583,-0.7458144426345825,-0.7648016810417175,-0.7848097085952759,-0.8034982085227966,-0.8197221159934998,-0.8347699046134949,-0.8480299711227417,-0.8592836856842041,-0.87164705991745,-0.8851991295814514,-0.8912926316261292,-0.8740052580833435,-0.8137428760528564,-0.6863455772399902,-0.46804317831993103,-0.1504710465669632,0.25046801567077637,0.6971904635429382,1.1353808641433716,1.5027594566345215,1.7537474632263184,1.8739596605300903,1.8703713417053223,1.7644414901733398,1.5841145515441895,1.350216031074524,1.0755525827407837,0.7744391560554504,0.4668615758419037,0.1747729480266571,-0.08430547267198563,-0.30073845386505127,-0.4702673852443695,-0.5926167368888855,-0.6731375455856323,-0.7230928540229797,-0.7562531232833862,-0.7827526330947876,-0.806865394115448,-0.8294888138771057,-0.850928008556366,-0.8707427382469177,-0.8862021565437317,-0.8960683941841125,-0.9035167694091797,-0.9107020497322083,-0.9161823987960815,-0.9148142337799072,-0.8915959596633911,-0.8223824501037598,-0.6809912323951721,-0.44559726119041443,-0.11024738103151321,0.3067387640476227,0.7628186345100403,1.1978603601455688,1.5525035858154297,1.7861933708190918,1.8830960988998413,1.8515664339065552,1.7163300514221191,1.5065412521362305,1.2477985620498657,0.9577650427818298,0.6514341235160828,0.35083532333374023,0.07794281840324402,-0.1563531905412674,-0.34761184453964233,-0.49280479550361633,-0.5936768054962158,-0.657863199710846,-0.6964352130889893,-0.722161591053009,-0.7450658679008484,-0.7681342363357544,-0.7889103889465332,-0.8061577081680298,-0.8237947225570679,-0.8449251651763916,-0.8689193725585938,-0.8944066762924194,-0.9181429147720337,-0.933912456035614,-0.9298731684684753,-0.8864489793777466,-0.7795543670654297,-0.5860623717308044,-0.29438018798828125,0.08563687652349472,0.5206775069236755,0.9597697854042053,1.3461021184921265,1.6303738355636597,1.784181833267212,1.8057414293289185,1.714287519454956,1.537983775138855,1.3035142421722412,1.0321381092071533,0.7411302924156189,0.44882768392562866,0.17651277780532837,-0.06019900366663933,-0.2542632818222046,-0.4019860625267029,-0.5044804811477661,-0.5698212385177612,-0.6114578247070312,-0.6430578231811523,-0.6701251864433289,-0.6913632154464722,-0.7076581120491028,-0.724281907081604,-0.7448161244392395,-0.7671787738800049,-0.7887221574783325,-0.8098836541175842,-0.8331753015518188,-0.8587340116500854,-0.8778155446052551,-0.8707149624824524,-0.8073329329490662,-0.6553708910942078,-0.39447659254074097,-0.028713926672935486,0.40943336486816406,0.8705129027366638,1.297367811203003,1.633327841758728,1.8400318622589111,1.9059449434280396,1.8432679176330566,1.6807750463485718,1.4491153955459595,1.1700637340545654,0.862286388874054,0.5476880073547363,0.24864208698272705,-0.016141748055815697,-0.2368006855249405,-0.41234713792800903,-0.5442166328430176,-0.6356737017631531,-0.6952168345451355,-0.735188364982605,-0.7666242718696594,-0.7944747805595398,-0.8182938098907471,-0.8362436890602112,-0.8473191857337952,-0.8556578159332275,-0.8664238452911377,-0.8782635927200317,-0.8894193768501282,-0.9001396894454956,-0.9046655893325806,-0.8868237733840942,-0.822796642780304,-0.6890281438827515,-0.4673137068748474,-0.14981068670749664,0.2503069043159485,0.6933399438858032,1.1212064027786255,1.478089451789856,1.7240267992019653,1.8387811183929443,1.8250696659088135,1.7023426294326782,1.4976563453674316,1.2390429973602295,0.9494970440864563,0.646974503993988,0.3476412892341614,0.06808043271303177,-0.1751590371131897,-0.36927396059036255,-0.5114659070968628,-0.609197735786438,-0.6713517308235168,-0.7073274850845337,-0.7288771867752075,-0.7455745935440063,-0.7634839415550232,-0.7838021516799927,-0.8042286038398743,-0.8234902024269104,-0.8413296341896057,-0.8596124649047852,-0.8812578916549683,-0.9044776558876038,-0.9220325350761414,-0.9199880361557007,-0.872684895992279,-0.7498959898948669,-0.5325390696525574,-0.2191040813922882,0.17582489550113678,0.6202455163002014,1.063033938407898,1.4453811645507812,1.7207238674163818,1.8674066066741943,1.8878334760665894
-0.7402057647705078,-0.723393976688385,-0.6632474064826965,-0.5376337170600891,-0.3322662115097046,-0.04261832684278488,0.3225310146808624,0.7340550422668457,1.1450998783111572,1.5040141344070435,1.7660808563232422,1.91300368309021,1.9543184041976929,1.9070820808410645,1.791775107383728,1.6289702653884888,1.43315589427948,1.2158106565475464,0.9825108051300049,0.732573926448822,0.469618022441864,0.20952177047729492,-0.026171479374170303,-0.2232038676738739,-0.3773578107357025,-0.48898765444755554,-0.5613847970962524,-0.6040454506874084,-0.6314632892608643,-0.6581565737724304,-0.6917319297790527,-0.7296562790870667,-0.765380859375,-0.7939928770065308,-0.8149738311767578,-0.8326655626296997,-0.8524026274681091,-0.8735194206237793,-0.8896075487136841,-0.8982217907905579,-0.901292622089386,-0.9006659388542175,-0.8973035216331482,-0.891899049282074,-0.8881919980049133,-0.8894630670547485,-0.8883370161056519,-0.8636165857315063,-0.7888772487640381,-0.6423521041870117,-0.4111633598804474,-0.09674691408872604,0.283914178609848,0.70221346616745,1.1123586893081665,1.4603869915008545,1.7114676237106323,1.855420708656311,1.8964508771896362,1.8522931337356567,1.7523667812347412,1.6164559125900269,1.449834942817688,1.2564986944198608,1.0357420444488525,0.7872704863548279,0.5201295018196106,0.2510206997394562,0.002061852952465415,-0.20797957479953766,-0.36892759799957275,-0.48100417852401733,-0.5523046851158142,-0.5918893218040466,-0.6130940914154053,-0.6316555738449097,-0.6561060547828674,-0.6866499781608582,-0.7171452641487122,-0.7430731654167175,-0.7661274075508118,-0.7880008220672607,-0.8093841671943665,-0.8289690613746643,-0.8428975939750671,-0.8485496044158936,-0.8472520709037781,-0.8433690071105957,-0.8394566774368286,-0.837149441242218,-0.83942049741745,-0.8474245667457581,-0.856222927570343,-0.8516360521316528,-0.8138564825057983,-0.7234342098236084,-0.5604879260063171,-0.3105548024177551,0.02517625503242016,0.4276265799999237,0.8571739792823792,1.2579574584960938,1.579895257949829,1.797373652458191,1.9042232036590576,1.9067622423171997,1.8271169662475586,1.6947734355926514,1.53219473361969,1.346449851989746,1.1331093311309814,0.8908759951591492,0.6270442605018616,0.3590331971645355,0.11330319195985794,-0.09128109365701675,-0.2534123659133911,-0.37579017877578735,-0.4620761275291443,-0.5248403549194336,-0.5755127668380737,-0.6188399195671082,-0.6568772196769714,-0.6890842318534851,-0.7163806557655334,-0.7418165802955627,-0.7677605152130127,-0.7938747406005859,-0.8157753944396973,-0.829840898513794,-0.8370213508605957,-0.839766800403595,-0.8403075337409973,-0.8405219912528992,-0.8409298658370972,-0.842683732509613,-0.847373902797699,-0.8567407727241516,-0.8695952296257019,-0.873561680316925,-0.847501814365387,-0.7686029076576233,-0.6145992875099182,-0.3695021867752075,-0.0360238254070282,0.3615705072879791,0.786808431148529,1.194966435432434,1.5393774509429932,1.7890164852142334,1.9333699941635132,1.9740166664123535,1.924126148223877,1.8052597045898438,1.6374181509017944,1.4332441091537476,1.197975754737854,0.9389969706535339,0.6692292094230652,0.4007185399532318,0.14717400074005127,-0.07733514159917831,-0.26261764764785767,-0.40176549553871155,-0.4973759949207306,-0.5619810223579407,-0.61017906665802,-0.6515739560127258,-0.686350405216217,-0.7118971347808838,-0.7291708588600159,-0.7408745288848877,-0.751990556716919,-0.7685041427612305,-0.7912741303443909,-0.8153336048126221,-0.8378495573997498,-0.858202338218689,-0.8715113997459412,-0.8761999011039734,-0.8778082728385925,-0.8803237676620483,-0.8836867809295654,-0.8878577947616577,-0.8912860751152039,-0.8842247128486633,-0.8530833125114441,-0.7821423411369324,-0.6501162052154541,-0.4366471767425537,-0.1276724487543106,0.270780473947525,0.7205159068107605,1.1631830930709839,1.5398075580596924,1.8099132776260376,1.961011290550232,2.00010085105896,1.9446814060211182,1.821642279624939,1.6586391925811768,1.4672709703445435,1.2451763153076172,0.9936766624450684,0.7244865894317627,0.45345333218574524,0.19787369668483734,-0.026999780908226967,-0.21559485793113708,-0.3660353124141693,-0.4764542281627655,-0.5512147545814514,-0.5992690324783325,-0.6307615041732788,-0.6550756692886353,-0.6815714836120605,-0.7166988849639893,-0.7567777633666992,-0.7927713394165039,-0.8196216225624084,-0.8381541967391968,-0.8508064150810242,-0.8602609634399414,-0.8704425096511841,-0.882331371307373,-0.8926846385002136,-0.8975395560264587,-0.8958026766777039,-0.891114354133606,-0.8877773284912109,-0.8840090036392212,-0.8738117218017578,-0.8444919586181641,-0.7703253030776978,-0.6230547428131104,-0.38643524050712585,-0.061984844505786896,0.3324282467365265,0.7635552883148193,1.1826496124267578,1.5411155223846436,1.8044095039367676,1.9539272785186768,1.9941678047180176,1.9484550952911377,1.8416298627853394,1.6890496015548706,1.4954849481582642,1.2645020484924316,1.0028263330459595,0.7195704579353333,0.4304373860359192,0.15663368999958038,-0.08223039656877518,-0.27257195115089417,-0.41061142086982727,-0.5031694769859314,-0.563378095626831,-0.6043509244918823,-0.6350195407867432,-0.6637449860572815,-0.697948157787323,-0.7355047464370728,-0.768808901309967,-0.7965647578239441,-0.8220299482345581,-0.844811737537384,-0.8618438243865967,-0.8722155690193176,-0.8781563639640808,-0.884086012840271,-0.8925561308860779,-0.899762749671936,-0.8998494744300842,-0.8964613676071167,-0.8995086550712585,-0.9113591313362122,-0.920130729675293,-0.8991900682449341,-0.8218039274215698,-0.673933207988739,-0.44804149866104126,-0.13883289694786072,0.2471051961183548,0.6792995929718018,1.1099762916564941,1.4883885383605957,1.7706469297409058,1.9351210594177246,1.9885854721069336,1.955202341079712,1.8596316576004028,1.7169700860977173,1.5379935503005981,1.3278942108154297,1.0846585035324097,0.8145902156829834,0.5351033806800842,0.2655338644981384,0.023200085386633873,-0.18121910095214844,-0.34422531723976135,-0.46818891167640686,-0.5572641491889954,-0.6155190467834473,-0.6541528701782227,-0.6843123435974121,-0.7102415561676025,-0.7350599765777588,-0.7606837153434753,-0.7883462905883789,-0.8157954216003418,-0.8388902544975281,-0.8569335341453552,-0.8697554469108582,-0.8774644732475281,-0.8789079785346985,-0.8741718530654907,-0.8692135214805603,-0.8697077035903931,-0.8746630549430847,-0.8797311782836914,-0.8852691650390625,-0.890252947807312,-0.879467248916626,-0.8297783136367798,-0.7199850082397461,-0.5316390991210938,-0.25539806485176086,0.10409629344940186,0.5260483622550964,0.96684330701828,1.3703709840774536,1.6895650625228882,1.8974171876907349,1.9907461404800415,1.9852850437164307,1.9048441648483276,1.7730226516723633,1.6054160594940186,1.408316969871521,1.1865365505218506,0.9432599544525146,0.681210994720459,0.4132320284843445,0.15988554060459137,-0.06299210339784622,-0.2473462074995041,-0.3912290632724762,-0.496771901845932,-0.5659042596817017,-0.6063717007637024,-0.6352728605270386,-0.6674031615257263,-0.7067203521728516,-0.7459873557090759,-0.7785806059837341,-0.8064778447151184,-0.8314272165298462,-0.8526871204376221,-0.8683902621269226,-0.8760037422180176,-0.8752278685569763,-0.8689942359924316,-0.8633217215538025,-0.8623921871185303,-0.8652715682983398,-0.8681004047393799,-0.8686605095863342,-0.8691281080245972,-0.8701266050338745,-0.8595051765441895,-0.8120133280754089,-0.7018859386444092,-0.5108200907707214,-0.22911056876182556,0.1397736668586731,0.5696577429771423,1.0124348402023315,1.4123107194900513,1.7202692031860352,1.9091025590896606,1.9807188510894775,1.955890417098999,1.8615450859069824,1.7222425937652588,1.550487756729126,1.3460696935653687,1.107190489768982,0.8426485061645508,0.569094181060791,0.30088528990745544,0.05188940837979317,-0.16400893032550812,-0.3350399434566498,-0.4550987184047699,-0.5320097208023071,-0.5825832486152649,-0.6231980323791504,-0.6639508008956909,-0.7042773365974426,-0.7392099499702454,-0.7670086622238159,-0.7894167304039001,-0.8056146502494812,-0.8151910305023193,-0.8241161704063416,-0.8342312574386597,-0.843034029006958,-0.8523054718971252,-0.8624330759048462,-0.8688037395477295,-0.86909419298172,-0.8661284446716309,-0.8625622391700745,-0.8599032759666443,-0.8542464375495911,-0.8335037231445312,-0.7846567630767822,-0.6903756260871887,-0.5294364094734192,-0.28697627782821655,0.04370134323835373,0.4485582411289215,0.8830362558364868,1.2900002002716064,1.6217902898788452,1.850381851196289,1.9672316312789917,1.9785104990005493,1.9006165266036987,1.757302165031433,1.5726747512817383,1.3611582517623901,1.1266365051269531,0.8702253699302673,0.5988723635673523,0.3301246464252472,0.08425339311361313,-0.12847758829593658,-0.3046934902667999,-0.4380775988101959,-0.530279278755188,-0.5948750972747803,-0.6395749449729919,-0.6701590418815613,-0.6942986845970154,-0.7154921889305115,-0.7390479445457458,-0.7646066546440125,-0.7875457406044006,-0.8081524968147278,-0.826325535774231,-0.842072069644928,-0.8525343537330627,-0.8544483184814453,-0.8508809208869934,-0.8463308811187744,-0.8437789678573608,-0.8436471819877625,-0.8464205265045166,-0.8518915176391602,-0.8560866713523865,-0.8515914082527161,-0.8231997489929199,-0.7478319406509399,-0.5993035435676575,-0.3579027056694031,-0.02266307920217514,0.38757437467575073,0.8340898156166077,1.259811520576477,1.6099843978881836,1.8515352010726929,1.9763630628585815,1.995280385017395,1.9270509481430054,1.7956761121749878,1.6254032850265503,1.4281376600265503,1.2032470703125,0.9472043514251709,0.6651613712310791,0.3776073753833771,0.11213486641645432,-0.11335428804159164,-0.2943435609340668,-0.4301287531852722,-0.5242705345153809,-0.5873594880104065,-0.6303039193153381,-0.6603573560714722,-0.683930516242981,-0.7085402011871338,-0.7384421825408936,-0.7717984914779663,-0.8027756810188293,-0.8242396712303162,-0.8342261910438538,-0.8376311659812927
0.7701317667961121,1.1807538270950317,1.5275698900222778,1.7748712301254272,1.9038257598876953,1.921147346496582,1.8509893417358398,1.7249075174331665,1.5689066648483276,1.3901876211166382,1.1826393604278564,0.9444282054901123,0.685259997844696,0.42245054244995117,0.17637422680854797,-0.03633040934801102,-0.2082725614309311,-0.3392297625541687,-0.432819128036499,-0.49661317467689514,-0.5430827140808105,-0.5834583044052124,-0.6213436126708984,-0.6552233695983887,-0.683622419834137,-0.7083445191383362,-0.7310037612915039,-0.7528093457221985,-0.7774142622947693,-0.8055834174156189,-0.8334716558456421,-0.8552819490432739,-0.8660240769386292,-0.8640348315238953,-0.8540105223655701,-0.8475847840309143,-0.8511430025100708,-0.8610114455223083,-0.8678215146064758,-0.8568018078804016,-0.809526264667511,-0.7060638666152954,-0.5288404226303101,-0.26498162746429443,0.08533383160829544,0.49773237109184265,0.928774356842041,1.32491135597229,1.6363393068313599,1.8366737365722656,1.9278937578201294,1.9260421991348267,1.8476626873016357,1.7118778228759766,1.5358072519302368,1.3291832208633423,1.0994575023651123,0.8511072397232056,0.588749349117279,0.32398346066474915,0.07755231112241745,-0.13015207648277283,-0.29144522547721863,-0.4080025255680084,-0.4868703782558441,-0.538970410823822,-0.575947642326355,-0.607779324054718,-0.638268768787384,-0.66692054271698,-0.6953312754631042,-0.7255488038063049,-0.7568125128746033,-0.7870614528656006,-0.8128839135169983,-0.8307862877845764,-0.8395999073982239,-0.8409870862960815,-0.8388441205024719,-0.8367274403572083,-0.8369420766830444,-0.8396633863449097,-0.8446431756019592,-0.854476273059845,-0.8665777444839478,-0.864378809928894,-0.8207544088363647,-0.708222508430481,-0.5072473287582397,-0.20830288529396057,0.18146531283855438,0.6269247531890869,1.07184898853302,1.459193468093872,1.743240237236023,1.9016410112380981,1.9444440603256226,1.903713583946228,1.810672402381897,1.6822996139526367,1.5226258039474487,1.3270213603973389,1.0922133922576904,0.8280906677246094,0.554003894329071,0.2909680902957916,0.058177005499601364,-0.1320655196905136,-0.27777308225631714,-0.3874644935131073,-0.4728240668773651,-0.5407148003578186,-0.5943139791488647,-0.6367350220680237,-0.6725138425827026,-0.7051458954811096,-0.7374334931373596,-0.7724377512931824,-0.8095440864562988,-0.8428776264190674,-0.8651912808418274,-0.8765476942062378,-0.8827844262123108,-0.888755738735199,-0.8966220021247864,-0.9030134081840515,-0.9051429629325867,-0.9046695828437805,-0.9035579562187195,-0.9013159871101379,-0.8922366499900818,-0.8625525832176208,-0.7844468951225281,-0.6279217600822449,-0.3795154392719269,-0.042682625353336334,0.36399057507514954,0.8058422207832336,1.2306499481201172,1.5825151205062866,1.8246511220932007,1.9477908611297607,1.9677984714508057,1.9098695516586304,1.793876051902771,1.6350736618041992,1.4460197687149048,1.2351181507110596,1.0025126934051514,0.7448824644088745,0.46885308623313904,0.19585806131362915,-0.046773992478847504,-0.23940512537956238,-0.3765753209590912,-0.46741825342178345,-0.5288758277893066,-0.5746849179267883,-0.6140256524085999,-0.6531589031219482,-0.6930155158042908,-0.7311168909072876,-0.7645594477653503,-0.7917974591255188,-0.8134104013442993,-0.8308641314506531,-0.8454722762107849,-0.8571813106536865,-0.8687494397163391,-0.8821725845336914,-0.8910674452781677,-0.8902705907821655,-0.8830229043960571,-0.8763445615768433,-0.8755896091461182,-0.8772762417793274,-0.8662791848182678,-0.8221896290779114,-0.7219523787498474,-0.5431416630744934,-0.2734770178794861,0.08390162885189056,0.5034704804420471,0.9392949342727661,1.3384627103805542,1.651552438735962,1.850117564201355,1.9342315196990967,1.9217926263809204,1.838966965675354,1.7097790241241455,1.5501587390899658,1.36704421043396,1.1601837873458862,0.9291524887084961,0.6773000955581665,0.4148833453655243,0.16039429605007172,-0.066240094602108,-0.25134143233299255,-0.3905602693557739,-0.48778191208839417,-0.5539824366569519,-0.602846086025238,-0.6437474489212036,-0.681260883808136,-0.7157818675041199,-0.7451409697532654,-0.7705932259559631,-0.7966810464859009,-0.8249098658561707,-0.8497949242591858,-0.8643560409545898,-0.86897873878479,-0.8690884709358215,-0.8679661750793457,-0.8658627867698669,-0.8632745742797852,-0.8602961301803589,-0.855398416519165,-0.8494634032249451,-0.8406286835670471,-0.8165996074676514,-0.7587979435920715,-0.6429144144058228,-0.44425827264785767,-0.15235620737075806,0.2214757800102234,0.6426966786384583,1.0639746189117432,1.4367711544036865,1.7194663286209106,1.8911266326904297,1.9548463821411133,1.9298880100250244,1.8406778573989868,1.7071150541305542,1.5386638641357422,1.3364300727844238,1.102492332458496,0.8439502120018005,0.5732582211494446,0.30769747495651245,0.06592512875795364,-0.13814447820186615,-0.2991575598716736,-0.42028024792671204,-0.5128060579299927,-0.5857915878295898,-0.6401220560073853,-0.6791191101074219,-0.7099135518074036,-0.7363953590393066,-0.758668065071106,-0.777651309967041,-0.7958828210830688,-0.8136900663375854,-0.8306412696838379,-0.8454645872116089,-0.854056179523468,-0.8533657193183899,-0.8443963527679443,-0.8298205137252808,-0.8148671984672546,-0.8080015778541565,-0.8117879629135132,-0.8229814171791077,-0.8343950510025024,-0.8288199305534363,-0.7841429710388184,-0.6780115365982056,-0.4914964437484741,-0.21684393286705017,0.14056888222694397,0.5557685494422913,0.983012855052948,1.369806170463562,1.6704245805740356,1.8575388193130493,1.9304463863372803,1.9087719917297363,1.8176195621490479,1.6809208393096924,1.515282392501831,1.3238948583602905,1.1029655933380127,0.8504219651222229,0.5773563385009766,0.3100801110267639,0.06975074857473373,-0.1358371078968048,-0.30382463335990906,-0.4341946244239807,-0.5280687212944031,-0.5896434187889099,-0.6274824142456055,-0.650884747505188,-0.671269953250885,-0.6985006928443909,-0.7322268486022949,-0.7646493911743164,-0.7914979457855225,-0.8146299123764038,-0.834671676158905,-0.8475130796432495,-0.8486692905426025,-0.8384358882904053,-0.8252137899398804,-0.8189854025840759,-0.823155403137207,-0.8362022042274475,-0.8534905910491943,-0.8681018352508545,-0.8696648478507996,-0.8420196771621704,-0.7659503817558289,-0.6209455132484436,-0.3895905613899231,-0.07088157534599304,0.3162025809288025,0.7395769953727722,1.1542149782180786,1.5090367794036865,1.7675694227218628,1.9174774885177612,1.9621574878692627,1.916464924812317,1.8045631647109985,1.6487295627593994,1.4596444368362427,1.2376492023468018,0.9859747886657715,0.7163429856300354,0.44507020711898804,0.18998759984970093,-0.03659502789378166,-0.2277962565422058,-0.3782331943511963,-0.48791831731796265,-0.5646994709968567,-0.618219256401062,-0.655734121799469,-0.6836342811584473,-0.7066041231155396,-0.7280084490776062,-0.7497584223747253,-0.7722707986831665,-0.7952022552490234,-0.8163226246833801,-0.8335713148117065,-0.8453884124755859,-0.8521841764450073,-0.8584999442100525,-0.8665134310722351,-0.8724637627601624,-0.8737987279891968,-0.87200927734375,-0.8684482574462891,-0.8631762266159058,-0.8478316068649292,-0.800432026386261,-0.6927688717842102,-0.49974510073661804,-0.20932185649871826,0.17053735256195068,0.6057900786399841,1.0442475080490112,1.4330213069915771,1.7268834114074707,1.9033974409103394,1.968773365020752,1.946260929107666,1.862853765487671,1.7357540130615234,1.5703076124191284,1.3681306838989258,1.1331897974014282,0.8718270063400269,0.5921161770820618,0.30993059277534485,0.0513741634786129,-0.16298863291740417,-0.32955747842788696,-0.45422279834747314,-0.544857382774353,-0.6083966493606567,-0.6527594923973083,-0.6864242553710938,-0.7145294547080994,-0.7417880892753601,-0.7723930478096008,-0.8048847317695618,-0.8322194814682007,-0.8474102020263672,-0.8521215915679932,-0.8559995889663696,-0.8632133603096008,-0.8706578016281128,-0.8761380314826965,-0.876861572265625,-0.8711618185043335,-0.8632115125656128,-0.8580361008644104,-0.8564450740814209,-0.853991687297821,-0.8367929458618164,-0.7778596878051758,-0.6514505743980408,-0.44178372621536255,-0.13753734529018402,0.2550702393054962,0.7001188397407532,1.140030026435852,1.5186659097671509,1.8013496398925781,1.974929928779602,2.0417532920837402,2.0134239196777344,1.908046841621399,1.7456786632537842,1.5432932376861572,1.3140325546264648,1.0661531686782837,0.8075546026229858,0.5476475954055786,0.29464104771614075,0.058013301342725754,-0.1506592333316803,-0.3229420483112335,-0.45730867981910706,-0.5567590594291687,-0.6298007965087891,-0.6862260699272156,-0.7296210527420044,-0.7644952535629272,-0.795268714427948,-0.820827305316925,-0.8400318026542664,-0.8523451089859009,-0.8605621457099915,-0.8697634339332581,-0.8791026473045349,-0.8842880725860596,-0.8841807246208191,-0.8808521628379822,-0.8760225176811218,-0.871893584728241,-0.8722179532051086,-0.8772586584091187,-0.8810156583786011,-0.8721759915351868,-0.8324688076972961,-0.7370527386665344,-0.5639596581459045,-0.3033922016620636,0.03804701194167137,0.4375067353248596,0.8596848845481873,1.2612318992614746,1.5964452028274536,1.828755497932434,1.9450713396072388,1.9584262371063232,1.89546799659729,1.7801908254623413,1.626410961151123,1.4405454397201538,1.2244852781295776,0.9788229465484619,0.7111701965332031,0.4395540952682495,0.18423905968666077,-0.041412413120269775,-0.23122458159923553,-0.38208138942718506,-0.49372589588165283,-0.5735310912132263,-0.6330282092094421,-0.6772155165672302,-0.7075511813163757,-0.7300800681114197,-0.752155601978302,-0.7746195793151855,-0.7927463054656982,-0.8059162497520447,-0.8177981972694397,-0.8317875266075134,-0.851211667060852,-0.8741971254348755,-0.8934465050697327,-0.9038912653923035,-0.9050077795982361,-0.9000696539878845,-0.8956583142280579,-0.8957152962684631,-0.8926582932472229,-0.8681303858757019,-0.7993789315223694,-0.6655370593070984,-0.4511670470237732
-0.8475284576416016,-0.8560634851455688,-0.868774950504303,-0.8845075368881226,-0.8957436084747314,-0.8988643288612366,-0.8971922993659973,-0.8906945586204529,-0.8785819411277771,-0.8664261102676392,-0.8600096106529236,-0.8606407046318054,-0.8649741411209106,-0.8631644248962402,-0.8430319428443909,-0.7912197709083557,-0.6870639324188232,-0.5083300471305847,-0.243986576795578,0.10042861104011536,0.5040181279182434,0.9292923808097839,1.3255330324172974,1.6477165222167969,1.869873285293579,1.987600326538086,2.014820098876953,1.9725925922393799,1.8774644136428833,1.7410016059875488,1.5749106407165527,1.3817449808120728,1.156326413154602,0.902089536190033,0.6306785941123962,0.3615165650844574,0.11936034262180328,-0.08082401752471924,-0.23514966666698456,-0.346980482339859,-0.4280824661254883,-0.49045342206954956,-0.5426454544067383,-0.5907213687896729,-0.6343697309494019,-0.6706386208534241,-0.6993070840835571,-0.7229703068733215,-0.7455098628997803,-0.7679113745689392,-0.7869693040847778,-0.8024581074714661,-0.8182684183120728,-0.8332721590995789,-0.8428041934967041,-0.8471786975860596,-0.8505018949508667,-0.8536133766174316,-0.855049729347229,-0.8542208671569824,-0.850224494934082,-0.8451501131057739,-0.8436492085456848,-0.8453202247619629,-0.8396463990211487,-0.8102248907089233,-0.73942631483078,-0.6051908135414124,-0.38614052534103394,-0.07233209162950516,0.32424601912498474,0.7623984217643738,1.1857671737670898,1.5434316396713257,1.8021873235702515,1.9529980421066284,2.006305694580078,1.9800020456314087,1.8916813135147095,1.7607245445251465,1.6044217348098755,1.4273771047592163,1.2264468669891357,0.9995570182800293,0.7490068674087524,0.4867534637451172,0.23177841305732727,0.0033786301501095295,-0.18441691994667053,-0.3268232047557831,-0.4282657504081726,-0.5005513429641724,-0.5552164912223816,-0.5975438356399536,-0.6292230486869812,-0.6542787551879883,-0.6786425113677979,-0.7042486667633057,-0.7298544645309448,-0.7547011971473694,-0.778326153755188,-0.8002784848213196,-0.818782389163971,-0.8311628699302673,-0.8406964540481567,-0.852601945400238,-0.8645221590995789,-0.8728781342506409,-0.8751252889633179,-0.8689249753952026,-0.8562514781951904,-0.8422632813453674,-0.8333173990249634,-0.8293628096580505,-0.8227927684783936,-0.8031710982322693,-0.7523624300956726,-0.6462655663490295,-0.4627988934516907,-0.1925409734249115,0.15631352365016937,0.562251627445221,0.9857098460197449,1.3749608993530273,1.6850214004516602,1.8879731893539429,1.9787753820419312,1.9737555980682373,1.9017012119293213,1.7920647859573364,1.6629719734191895,1.515854001045227,1.3432610034942627,1.1400302648544312,0.9050270318984985,0.6438518166542053,0.3746386766433716,0.1259293258190155,-0.07625579833984375,-0.223683163523674,-0.3249083459377289,-0.39384880661964417,-0.44366154074668884,-0.4855298101902008,-0.5264723896980286,-0.5686969757080078,-0.6142017841339111,-0.6620903611183167,-0.7066435217857361,-0.7451156377792358,-0.7784343957901001,-0.8063375949859619,-0.8271552920341492,-0.8389896750450134,-0.8433195352554321,-0.8463882207870483,-0.8509140014648438,-0.8548796772956848,-0.8581488728523254,-0.8592627644538879,-0.8585297465324402,-0.8620277643203735,-0.8709896802902222,-0.8795663714408875,-0.8817209601402283,-0.8736491799354553,-0.8486804962158203,-0.7919461131095886,-0.6819661855697632,-0.4954935610294342,-0.21367278695106506,0.16354955732822418,0.6016051769256592,1.0442001819610596,1.4357420206069946,1.7339690923690796,1.9231634140014648,2.007899284362793,2.004347801208496,1.937291145324707,1.8280491828918457,1.6890544891357422,1.5234094858169556,1.329226016998291,1.106479525566101,0.8591461181640625,0.5967257022857666,0.3347782492637634,0.09374576061964035,-0.10736028105020523,-0.2596788704395294,-0.3663029074668884,-0.43769535422325134,-0.48795875906944275,-0.53139328956604,-0.5748376250267029,-0.6188517212867737,-0.6628880500793457,-0.7028356194496155,-0.7372250556945801,-0.7680802941322327,-0.7928203344345093,-0.8107395172119141,-0.8237389326095581,-0.8302307724952698,-0.8315858244895935,-0.8345017433166504,-0.8444390296936035,-0.8601992726325989,-0.8739852905273438,-0.8780559301376343,-0.8711962699890137,-0.8609838485717773,-0.8575295209884644,-0.8639815449714661,-0.8724143505096436,-0.8651224970817566,-0.8236423134803772,-0.7322674989700317,-0.571635365486145,-0.3240106701850891,0.01202449295669794,0.4144296944141388,0.8431833982467651,1.2524887323379517,1.5975862741470337,1.8428688049316406,1.9757016897201538,2.0087921619415283,1.9667036533355713,1.8722903728485107,1.7432200908660889,1.587767481803894,1.4022129774093628,1.180314064025879,0.9267640709877014,0.6586955189704895,0.39700135588645935,0.16110685467720032,-0.04026913642883301,-0.20652492344379425,-0.33157286047935486,-0.4155426323413849,-0.4714871942996979,-0.5138412117958069,-0.5531702041625977,-0.5935453772544861,-0.6335765719413757,-0.6684466600418091,-0.6949097514152527,-0.7156930565834045,-0.7325397729873657,-0.7441298365592957,-0.7537179589271545,-0.7700412273406982,-0.7953479886054993,-0.8203323483467102,-0.8389091491699219,-0.8523656129837036,-0.8604468703269958,-0.8645648956298828,-0.869709312915802,-0.8780747652053833,-0.8895271420478821,-0.9028313159942627,-0.9133644700050354,-0.9128822088241577,-0.8846962451934814,-0.8041036128997803,-0.6496095657348633,-0.40675896406173706,-0.07327574491500854,0.3342911899089813,0.7800235152244568,1.2111042737960815,1.5750149488449097,1.8389863967895508,1.99484384059906,2.052776336669922,2.030885696411133,1.950133204460144,1.8291248083114624,1.6763626337051392,1.4903770685195923,1.2679593563079834,1.0141222476959229,0.7441626191139221,0.4764590859413147,0.22765153646469116,0.00904209353029728,-0.17459456622600555,-0.3195827901363373,-0.42770880460739136,-0.5088542103767395,-0.5721441507339478,-0.6246128678321838,-0.6724225282669067,-0.7187835574150085,-0.7629359364509583,-0.8025192618370056,-0.8361234068870544,-0.8623126149177551,-0.8815377354621887,-0.8967933654785156,-0.906609058380127,-0.9076147079467773,-0.9042925834655762,-0.9002508521080017,-0.8924422860145569,-0.8817433714866638,-0.8713271617889404,-0.8582500219345093,-0.8386492729187012,-0.818561315536499,-0.8057716488838196,-0.7979516386985779,-0.787800669670105,-0.7613703012466431,-0.6952800154685974,-0.5651715397834778,-0.35480764508247375,-0.061115562915802,0.30695149302482605,0.7228277921676636,1.1391133069992065,1.5029759407043457,1.7752817869186401,1.939314365386963,1.997294306755066,1.9683359861373901,1.883198857307434,1.765468716621399,1.6220718622207642,1.446927547454834,1.2349663972854614,0.9933161735534668,0.7324299812316895,0.4646439552307129,0.20945994555950165,-0.01268953736871481,-0.1901748925447464,-0.3240647315979004,-0.42107975482940674,-0.4866968095302582,-0.5272434949874878,-0.554325520992279,-0.5803442001342773,-0.6096140146255493,-0.6411615014076233,-0.6729093194007874,-0.7011820077896118,-0.7225437164306641,-0.7368665337562561,-0.7493667602539062,-0.7666693925857544,-0.7883936166763306,-0.8082742094993591,-0.8220454454421997,-0.8281320929527283,-0.826197624206543,-0.818280041217804,-0.8095762729644775,-0.8049701452255249,-0.8060078620910645,-0.8113513588905334,-0.8166439533233643,-0.81550532579422,-0.7948504090309143,-0.7330244779586792,-0.6059074401855469,-0.39213404059410095,-0.08630460500717163,0.29573529958724976,0.7190544605255127,1.1322132349014282,1.4849594831466675,1.743700385093689,1.8974449634552002,1.9537334442138672,1.9270269870758057,1.8360278606414795,1.702675461769104,1.542409062385559,1.3583894968032837,1.1489626169204712,0.9131489992141724,0.6561228632926941,0.39382806420326233,0.14610177278518677,-0.07027648389339447,-0.2463042289018631,-0.3806472718715668,-0.4758548140525818,-0.5381040573120117,-0.5751054286956787,-0.5966607928276062,-0.6153488755226135,-0.6395187973976135,-0.6706489324569702,-0.7045276165008545,-0.730955183506012,-0.7443526387214661,-0.751093864440918,-0.7592620253562927,-0.7710216641426086,-0.7848674654960632,-0.7988482117652893,-0.8108816146850586,-0.8187823295593262,-0.8219190239906311,-0.8187861442565918,-0.8076807856559753,-0.7930161356925964,-0.7839441895484924,-0.7842379808425903,-0.7869372963905334,-0.7795795202255249,-0.7472458481788635,-0.6721528768539429,-0.5340045690536499,-0.3127403259277344,-0.0015859133563935757,0.3820797801017761,0.7977644205093384,1.194230556488037,1.5267534255981445,1.76482355594635,1.8969751596450806,1.9326927661895752,1.8924003839492798,1.79917573928833,1.675489902496338,1.5323481559753418,1.3654321432113647,1.1687144041061401,0.9449437856674194,0.7021308541297913,0.45101532340049744,0.20905914902687073,-0.0059882281348109245,-0.18583053350448608,-0.3265506625175476,-0.42843014001846313,-0.49826061725616455,-0.545946478843689,-0.5834181904792786,-0.6173561811447144,-0.6510491967201233,-0.6870611906051636,-0.7201122641563416,-0.7431867718696594,-0.7562059760093689,-0.7678745985031128,-0.7854220867156982,-0.8043359518051147,-0.8180257081985474,-0.824273407459259,-0.8244749307632446,-0.8226410746574402,-0.8221266865730286,-0.8254320621490479,-0.8320949673652649,-0.8383116126060486,-0.8416368961334229,-0.8402649760246277,-0.8341000080108643,-0.8249890208244324,-0.804563045501709,-0.7527611255645752,-0.6458483338356018,-0.4624963104724884,-0.1949169635772705,0.14768020808696747,0.5423417687416077,0.9531209468841553,1.335508108139038,1.6460481882095337,1.854017734527588,1.9523603916168213,1.9568880796432495,1.8955639600753784,1.793839454650879,1.6632181406021118,1.5064435005187988,1.3221511840820312,1.105686902999878,0.858730673789978,0.5932182669639587,0.3295307755470276,0.09018132835626602,-0.11006592959165573,-0.26612454652786255,-0.3796626627445221,-0.4561624825000763,-0.5066183805465698,-0.5454912781715393,-0.5796651840209961,-0.6142319440841675,-0.6544800996780396,-0.6938347220420837
1.9342154264450073,1.9466540813446045,1.8664692640304565,1.7201000452041626,1.5265089273452759,1.2941367626190186,1.029370903968811,0.7416773438453674,0.44235068559646606,0.14633749425411224,-0.13032826781272888,-0.374480277299881,-0.576202392578125,-0.7301111817359924,-0.8408732414245605,-0.9218692779541016,-0.9849457740783691,-1.0329997539520264,-1.0637723207473755,-1.0802712440490723,-1.087321162223816,-1.086927056312561,-1.0844029188156128,-1.084481954574585,-1.081508755683899,-1.0553500652313232,-0.9767453670501709,-0.8193268775939941,-0.5695303678512573,-0.2375105321407318,0.1439305692911148,0.5332142114639282,0.8867151737213135,1.1640784740447998,1.3400782346725464,1.41521418094635,1.4109843969345093,1.3513436317443848,1.2503913640975952,1.1151902675628662,0.9495154023170471,0.7517857551574707,0.5232136249542236,0.2775631546974182,0.037162650376558304,-0.1746000498533249,-0.34226691722869873,-0.46026211977005005,-0.5297390222549438,-0.5606068968772888,-0.5704425573348999,-0.5789126753807068,-0.5980230569839478,-0.6269732713699341,-0.6607555150985718,-0.697615385055542,-0.7364261150360107,-0.7737623453140259,-0.8043767809867859,-0.8190922141075134,-0.8048204779624939,-0.7427682876586914,-0.6051026582717896,-0.36810502409935,-0.029892416670918465,0.3803224265575409,0.8054518699645996,1.1812372207641602,1.456250786781311,1.6060402393341064,1.636046290397644,1.5667344331741333,1.4233205318450928,1.229647159576416,0.9998432993888855,0.7399935722351074,0.4554310739040375,0.15627235174179077,-0.1392631232738495,-0.40829482674598694,-0.6304987668991089,-0.7934135794639587,-0.8966467380523682,-0.9530690908432007,-0.9844231009483337,-1.0096451044082642,-1.0360527038574219,-1.0633786916732788,-1.0894850492477417,-1.1121232509613037,-1.1300272941589355,-1.1406536102294922,-1.1384735107421875,-1.1160093545913696,-1.058802843093872,-0.9415583610534668,-0.7362099289894104,-0.427762508392334,-0.02743908204138279,0.4275279939174652,0.8837855458259583,1.2846693992614746,1.5843132734298706,1.7613636255264282,1.823333978652954,1.7945438623428345,1.702082633972168,1.5661541223526,1.3931325674057007,1.1788185834884644,0.9191124439239502,0.6193332076072693,0.2976103723049164,-0.017562782391905785,-0.2948559522628784,-0.5123709440231323,-0.6665617823600769,-0.7634643316268921,-0.8120603561401367,-0.8314177989959717,-0.8437961935997009,-0.8637981414794922,-0.8977811336517334,-0.9440265893936157,-0.9968529343605042,-1.0496082305908203,-1.092712640762329,-1.113345742225647,-1.0964843034744263,-1.02328622341156,-0.8721520900726318,-0.6260868906974792,-0.2807560861110687,0.1441025286912918,0.601936399936676,1.0327965021133423,1.379773497581482,1.608553171157837,1.7162617444992065,1.7216802835464478,1.6539329290390015,1.5388702154159546,1.3859606981277466,1.191934585571289,0.9528645873069763,0.6683529019355774,0.34906336665153503,0.022062037140130997,-0.2802947163581848,-0.5293745994567871,-0.7076618671417236,-0.8180088996887207,-0.8773263096809387,-0.9069219827651978,-0.9279561638832092,-0.9528647661209106,-0.9841675758361816,-1.0203667879104614,-1.058136224746704,-1.0935957431793213,-1.124228596687317,-1.1461656093597412,-1.1474417448043823,-1.107330560684204,-0.9989967942237854,-0.7962926030158997,-0.4878358244895935,-0.08440129458904266,0.37841373682022095,0.8418490886688232,1.2419558763504028,1.5315698385238647,1.693895697593689,1.7406648397445679,1.6965035200119019,1.5902153253555298,1.4464530944824219,1.272805094718933,1.0622131824493408,0.8080542683601379,0.5159422755241394,0.20618605613708496,-0.09284903109073639,-0.3543711006641388,-0.5610706210136414,-0.7072433233261108,-0.798213541507721,-0.8498886823654175,-0.8798044919967651,-0.8988996148109436,-0.9142942428588867,-0.9314659833908081,-0.9540448784828186,-0.984240710735321,-1.0216416120529175,-1.0597281455993652,-1.0853992700576782,-1.0787094831466675,-1.010764241218567,-0.8488759994506836,-0.572317361831665,-0.18961378931999207,0.2607470154762268,0.7224158644676208,1.1342778205871582,1.4456958770751953,1.6304951906204224,1.6933653354644775,1.6616142988204956,1.566126823425293,1.425575613975525,1.2443441152572632,1.0220110416412354,0.7599731087684631,0.46773216128349304,0.16312527656555176,-0.13573582470417023,-0.4060417711734772,-0.6236186027526855,-0.7787640690803528,-0.8732993602752686,-0.9163850545883179,-0.927780270576477,-0.9288443922996521,-0.9332630634307861,-0.946100115776062,-0.9646620750427246,-0.9839159250259399,-1.0009586811065674,-1.013487696647644,-1.0154410600662231,-0.9904237389564514,-0.9118286371231079,-0.7536110281944275,-0.5004931688308716,-0.1530843824148178,0.2663549780845642,0.7103555202484131,1.1163535118103027,1.4286975860595703,1.6168044805526733,1.682797908782959,1.655036211013794,1.5667927265167236,1.4385877847671509,1.276444911956787,1.0773134231567383,0.8388996124267578,0.5673905611038208,0.2762487828731537,-0.012714884243905544,-0.2709518373012543,-0.4746885299682617,-0.6118096113204956,-0.6825370192527771,-0.7011857628822327,-0.6907134652137756,-0.6710922122001648,-0.6556915640830994,-0.6536418199539185,-0.6686372756958008,-0.698773205280304,-0.7400358319282532,-0.7868020534515381,-0.8310312628746033,-0.8610238432884216,-0.8569827675819397,-0.7892904877662659,-0.6290410757064819,-0.363931804895401,-0.0056103989481925964,0.4090985059738159,0.8275479078292847,1.1963348388671875,1.4712721109390259,1.6281946897506714,1.666818380355835,1.6070772409439087,1.479487419128418,1.3061676025390625,1.0953363180160522,0.8503230810165405,0.5716354846954346,0.2627527117729187,-0.06005771458148956,-0.3685302734375,-0.6303923726081848,-0.8226173520088196,-0.939423680305481,-0.9913794994354248,-1.0013633966445923,-0.9936246275901794,-0.9866194725036621,-0.9916650652885437,-1.0109267234802246,-1.039635181427002,-1.070880651473999,-1.1015676259994507,-1.131835699081421,-1.1565252542495728,-1.1592837572097778,-1.1090949773788452,-0.9672245383262634,-0.7090685367584229,-0.33575448393821716,0.1253133863210678,0.6197222471237183,1.077142357826233,1.4349513053894043,1.6598224639892578,1.7511100769042969,1.73121178150177,1.6336588859558105,1.4860734939575195,1.2994650602340698,1.0729331970214844,0.8049370646476746,0.5008491277694702,0.17808403074741364,-0.1362631469964981,-0.41806238889694214,-0.652157187461853,-0.8301097750663757,-0.9528732895851135,-1.031490683555603,-1.08189058303833,-1.1183446645736694,-1.1486754417419434,-1.1754688024520874,-1.1993281841278076,-1.222240686416626,-1.245636224746704,-1.2650649547576904,-1.2731380462646484,-1.2556889057159424,-1.186844825744629,-1.036180019378662,-0.7774903178215027,-0.40356290340423584,0.06340597569942474,0.574968695640564,1.065618634223938,1.472831130027771,1.7581735849380493,1.9167062044143677,1.9685373306274414,1.941093921661377,1.8582183122634888,1.7320505380630493,1.5649700164794922,1.355515956878662,1.1013861894607544,0.8130304217338562,0.5200138688087463,0.25579166412353516,0.03781428188085556,-0.1293848305940628,-0.2464979737997055,-0.3218279778957367,-0.3671875298023224,-0.396183043718338,-0.4224705398082733,-0.4598533809185028,-0.5208646059036255,-0.6100779175758362,-0.7239697575569153,-0.8520074486732483,-0.9765558838844299,-1.0700292587280273,-1.09888756275177,-1.0324492454528809,-0.8524770736694336,-0.5694301724433899,-0.2182568907737732,0.16269201040267944,0.5334690809249878,0.8494483828544617,1.0755040645599365,1.1969414949417114,1.21977698802948,1.1682989597320557,1.072818636894226,0.9521692991256714,0.8094658851623535,0.6411688327789307,0.4468088150024414,0.2323034107685089,0.010311342775821686,-0.19922158122062683,-0.3782997131347656,-0.5192779302597046,-0.6196345686912537,-0.6820903420448303,-0.7179955840110779,-0.7387365102767944,-0.7495412826538086,-0.7549886107444763,-0.7613834738731384,-0.7706589102745056,-0.7798645496368408,-0.787449061870575,-0.792936384677887,-0.7895712852478027,-0.7607126235961914,-0.6819217205047607,-0.5281740427017212,-0.2865147292613983,0.033901672810316086,0.40199026465415955,0.7725476622581482,1.097122073173523,1.3375920057296753,1.4776395559310913,1.5247358083724976,1.4992989301681519,1.4186111688613892,1.2887853384017944,1.1069326400756836,0.8700328469276428,0.5847511887550354,0.2669713795185089,-0.060989994555711746,-0.36941421031951904,-0.6305689215660095,-0.8326376080513,-0.9793045520782471,-1.0795304775238037,-1.1435073614120483,-1.1814510822296143,-1.2001723051071167,-1.205466628074646,-1.205566644668579,-1.2077510356903076,-1.213834285736084,-1.2191777229309082,-1.2142236232757568,-1.1860578060150146,-1.1160088777542114,-0.9803053736686707,-0.7577143907546997,-0.4407111406326294,-0.04507307708263397,0.39164024591445923,0.8173245191574097,1.17638099193573,1.4270795583724976,1.555064082145691,1.5749069452285767,1.5160740613937378,1.404178261756897,1.2538574934005737,1.071828842163086,0.861156165599823,0.624321699142456,0.3669215738773346,0.10240086168050766,-0.14800134301185608,-0.3612804710865021,-0.5202780961990356,-0.6217958927154541,-0.676302969455719,-0.6989037394523621,-0.7044559717178345,-0.7041018605232239,-0.7033441662788391,-0.704902172088623,-0.7084911465644836,-0.7115994095802307,-0.713495135307312,-0.7114495635032654,-0.6898125410079956,-0.6201382279396057,-0.4748980700969696,-0.2343483418226242,0.10627412796020508,0.5239344835281372,0.9689860939979553,1.3758279085159302,1.6812132596969604,1.8508658409118652,1.8869402408599854,1.8133944272994995,1.6615830659866333,1.4593782424926758,1.2226558923721313,0.9560732245445251,0.6623137593269348,0.34864094853401184,0.028317920863628387,-0.27970781922340393,-0.5531864762306213,-0.7709663510322571,-0.9192747473716736,-0.9985939264297485,-1.0265949964523315,-1.0290741920471191,-1.0260611772537231,-1.028855800628662,-1.0432051420211792,-1.0696938037872314
-0.2981606423854828,-0.4627666473388672,-0.5780919790267944,-0.6452067494392395,-0.6721275448799133,-0.6700993180274963,-0.6549903154373169,-0.642547070980072,-0.6395131945610046,-0.6447860598564148,-0.6540215015411377,-0.6626383662223816,-0.6710028052330017,-0.6839714050292969,-0.7058172821998596,-0.7377123832702637,-0.7752723097801208,-0.808538019657135,-0.8207626342773438,-0.786126971244812,-0.6742979288101196,-0.46037307381629944,-0.13441558182239532,0.29037022590637207,0.7703890204429626,1.2376890182495117,1.622427225112915,1.8731563091278076,1.967596411705017,1.914953351020813,1.7473630905151367,1.5054484605789185,1.2243911027908325,0.9265902042388916,0.624664306640625,0.3294239044189453,0.055485501885414124,-0.1813102811574936,-0.3705149292945862,-0.5080999732017517,-0.5945958495140076,-0.6382812857627869,-0.6552414894104004,-0.6607824563980103,-0.6653012633323669,-0.6743691563606262,-0.6882805228233337,-0.7035607695579529,-0.7183148264884949,-0.7336838245391846,-0.748634397983551,-0.7604315876960754,-0.7691498398780823,-0.7794405817985535,-0.7936616539955139,-0.8042829036712646,-0.7953076362609863,-0.741815447807312,-0.6144577264785767,-0.3875831961631775,-0.045537035912275314,0.3960264325141907,0.8813013434410095,1.337807536125183,1.6958566904067993,1.906097173690796,1.9568781852722168,1.865857720375061,1.6645684242248535,1.3910505771636963,1.0820060968399048,0.766395628452301,0.46110379695892334,0.17417743802070618,-0.08586356788873672,-0.30926713347435,-0.48614928126335144,-0.6078314781188965,-0.6750810146331787,-0.7008076906204224,-0.7040737271308899,-0.7003686428070068,-0.6968944072723389,-0.6968125700950623,-0.701148271560669,-0.7088176608085632,-0.7170583009719849,-0.7231419682502747,-0.7273709774017334,-0.7326098680496216,-0.7408778071403503,-0.7527515888214111,-0.765518307685852,-0.7663666009902954,-0.7298994660377502,-0.6241250038146973,-0.42173686623573303,-0.1092490628361702,0.3054695427417755,0.7831018567085266,1.2520924806594849,1.634026288986206,1.8753966093063354,1.9547768831253052,1.8818049430847168,1.690360188484192,1.4201921224594116,1.1072038412094116,0.7809624671936035,0.46380940079689026,0.1712397187948227,-0.08606576919555664,-0.2995447814464569,-0.46181759238243103,-0.5709343552589417,-0.6360165476799011,-0.6668915152549744,-0.670539379119873,-0.6601992249488831,-0.6510336399078369,-0.6518040895462036,-0.6617707014083862,-0.673707127571106,-0.6815168261528015,-0.6840866208076477,-0.6842168569564819,-0.6859366297721863,-0.6938443779945374,-0.7106162309646606,-0.7301636338233948,-0.73689204454422,-0.7087903618812561,-0.6179587841033936,-0.4368249773979187,-0.14980439841747284,0.23540155589580536,0.6834525465965271,1.1363741159439087,1.52291738986969,1.7807285785675049,1.8791704177856445,1.8238062858581543,1.6450749635696411,1.3811330795288086,1.07047700881958,0.7461379170417786,0.42909201979637146,0.13092289865016937,-0.13959699869155884,-0.3715766966342926,-0.5526026487350464,-0.6731314659118652,-0.7320759892463684,-0.7394555807113647,-0.7127772569656372,-0.6734455227851868,-0.6395606994628906,-0.6188992857933044,-0.6103786826133728,-0.608241081237793,-0.6069806814193726,-0.6052877902984619,-0.6040531992912292,-0.6040074229240417,-0.6078659296035767,-0.618328332901001,-0.6327950954437256,-0.6418657898902893,-0.627327024936676,-0.560923159122467,-0.4095826745033264,-0.14660800993442535,0.23302778601646423,0.7010695934295654,1.1948156356811523,1.63301420211792,1.946000576019287,2.095228910446167,2.0778698921203613,1.923213005065918,1.6763783693313599,1.3800907135009766,1.0637093782424927,0.7415508031845093,0.4211278259754181,0.11327658593654633,-0.16614341735839844,-0.40279287099838257,-0.5898866653442383,-0.7277143597602844,-0.8187575340270996,-0.8652517795562744,-0.8745107650756836,-0.8598794937133789,-0.8312849402427673,-0.7936019897460938,-0.7493046522140503,-0.6998247504234314,-0.6499413251876831,-0.6065122485160828,-0.5776738524436951,-0.5705912709236145,-0.5828180909156799,-0.603018581867218,-0.615271270275116,-0.5988692045211792,-0.5281823873519897,-0.3754885494709015,-0.12252312898635864,0.2259029746055603,0.6351503133773804,1.047216773033142,1.3970115184783936,1.6296236515045166,1.7195249795913696,1.672429084777832,1.5128419399261475,1.2776951789855957,1.0053529739379883,0.7222830057144165,0.44156181812286377,0.16480296850204468,-0.10988176614046097,-0.3695915639400482,-0.5858792662620544,-0.7365368008613586,-0.8168712854385376,-0.8375512957572937,-0.8193696141242981,-0.7834872007369995,-0.746953010559082,-0.7226616740226746,-0.7178053259849548,-0.7328864336013794,-0.766705334186554,-0.8195105791091919,-0.8878395557403564,-0.96476811170578,-1.0403412580490112,-1.1049777269363403,-1.1547679901123047,-1.181117296218872,-1.1657661199569702,-1.082562804222107,-0.9003852009773254,-0.598969578742981,-0.18006294965744019,0.33014315366744995,0.8819326758384705,1.4069175720214844,1.830325961112976,2.0988454818725586,2.198103427886963,2.1455881595611572,1.9772968292236328,1.7341556549072266,1.4486998319625854,1.1403852701187134,0.8237398862838745,0.5149690508842468,0.23514313995838165,0.009148240089416504,-0.14730918407440186,-0.23645006120204926,-0.27326419949531555,-0.27540701627731323,-0.25883981585502625,-0.24030306935310364,-0.23485326766967773,-0.25099295377731323,-0.2897534668445587,-0.34640467166900635,-0.41671207547187805,-0.5004845261573792,-0.5978343486785889,-0.7052621841430664,-0.8156101703643799,-0.920429527759552,-1.0084267854690552,-1.0581547021865845,-1.0363478660583496,-0.9077200889587402,-0.6468016505241394,-0.24939154088497162,0.25777488946914673,0.8178359866142273,1.352693796157837,1.7806196212768555,2.043443202972412,2.1237447261810303,2.039016008377075,1.8260201215744019,1.527762532234192,1.1821844577789307,0.8179625272750854,0.45805466175079346,0.12127819657325745,-0.1757928431034088,-0.41836532950401306,-0.5961050987243652,-0.707714319229126,-0.7669568657875061,-0.7947064638137817,-0.8070120811462402,-0.8152671456336975,-0.8259327411651611,-0.8415098786354065,-0.8634558320045471,-0.8914430141448975,-0.9246093034744263,-0.961992084980011,-1.000784158706665,-1.040053367614746,-1.080344319343567,-1.11698579788208,-1.142316460609436,-1.1434733867645264,-1.0942751169204712,-0.959202229976654,-0.7088557481765747,-0.3370329439640045,0.1358535885810852,0.6637605428695679,1.175877571105957,1.5953205823898315,1.8647117614746094,1.959981083869934,1.8912347555160522,1.693558692932129,1.4139574766159058,1.0965769290924072,0.771400511264801,0.45596182346343994,0.1633004993200302,-0.0922975093126297,-0.2965071499347687,-0.4433613717556,-0.5340877771377563,-0.5732164978981018,-0.574036180973053,-0.556979238986969,-0.5392753481864929,-0.5292356014251709,-0.5293000936508179,-0.536950945854187,-0.544194221496582,-0.5451322793960571,-0.5377281904220581,-0.521460235118866,-0.4990142583847046,-0.4742985963821411,-0.4477895200252533,-0.4154900014400482,-0.3672587275505066,-0.2788065969944,-0.11478326469659805,0.15339991450309753,0.5319584608078003,0.997020959854126,1.4945287704467773,1.9462530612945557,2.275683641433716,2.4366793632507324,2.4172449111938477,2.235863208770752,1.9340124130249023,1.5571026802062988,1.141544222831726,0.7147229313850403,0.299961656332016,-0.0822155773639679,-0.4175894260406494,-0.696366548538208,-0.9091486930847168,-1.0522385835647583,-1.1342324018478394,-1.1700376272201538,-1.1747314929962158,-1.164783000946045,-1.153777837753296,-1.147409439086914,-1.1436688899993896,-1.1380137205123901,-1.1271134614944458,-1.1088632345199585,-1.0855072736740112,-1.0623730421066284,-1.0436723232269287,-1.0290931463241577,-1.0110384225845337,-0.9735456109046936,-0.8897369503974915,-0.7275296449661255,-0.4615258574485779,-0.08666648715734482,0.3702823221683502,0.8579146265983582,1.3154964447021484,1.6838370561599731,1.917693018913269,1.9968383312225342,1.9307184219360352,1.752252221107483,1.499696969985962,1.2011170387268066,0.8801659941673279,0.5632495880126953,0.2696548104286194,0.008517562411725521,-0.21230268478393555,-0.3833613693714142,-0.4994714856147766,-0.5651624202728271,-0.5931119918823242,-0.5998808741569519,-0.6023133993148804,-0.6127360463142395,-0.6335878372192383,-0.6583244800567627,-0.6786085367202759,-0.6899757981300354,-0.6931742429733276,-0.6932772994041443,-0.6976699233055115,-0.7116543054580688,-0.734376847743988,-0.7569453716278076,-0.7616559863090515,-0.7228538393974304,-0.6088787317276001,-0.3904440999031067,-0.05601039528846741,0.3786977231502533,0.8704012632369995,1.3528895378112793,1.7525724172592163,2.0118720531463623,2.1074554920196533,2.0532312393188477,1.8843506574630737,1.6387355327606201,1.3461191654205322,1.0259549617767334,0.693636417388916,0.36307305097579956,0.048501402139663696,-0.23305532336235046,-0.4661083221435547,-0.6429910659790039,-0.7654950022697449,-0.843589723110199,-0.8922681212425232,-0.9238169193267822,-0.9448595643043518,-0.9587365984916687,-0.9659233093261719,-0.9682471752166748,-0.9675145745277405,-0.9608370065689087,-0.9463562369346619,-0.9264280796051025,-0.9038931131362915,-0.8802019953727722,-0.8541012406349182,-0.816445529460907,-0.7455484867095947,-0.6112973093986511,-0.38595521450042725,-0.05702545493841171,0.367144376039505,0.8559867739677429,1.3513922691345215,1.7783699035644531,2.0736382007598877,2.205734968185425,2.176476001739502,2.011732578277588,1.7507296800613403,1.433753490447998,1.0928314924240112,0.7497794032096863,0.41818612813949585,0.10711055248975754,-0.17452101409435272,-0.4138154685497284,-0.5973045229911804,-0.720421314239502,-0.7881848216056824,-0.8120320439338684,-0.8107315897941589,-0.8045147061347961,-0.8034261465072632,-0.8067246675491333,-0.8104989528656006,-0.8125797510147095,-0.813751220703125,-0.8137533664703369,-0.8120471835136414,-0.8114879131317139,-0.8145931363105774
2.1225736141204834,2.0821726322174072,1.9542044401168823,1.7660009860992432,1.5350724458694458,1.2707802057266235,0.9856109619140625,0.6917375326156616,0.39944469928741455,0.12347353994846344,-0.11919550597667694,-0.3167668581008911,-0.4668532907962799,-0.5729105472564697,-0.6434141397476196,-0.6910803914070129,-0.7264463901519775,-0.755162239074707,-0.7794844508171082,-0.801734447479248,-0.8233020305633545,-0.8446622490882874,-0.8662495613098145,-0.8860645294189453,-0.9032168984413147,-0.9200200438499451,-0.9377738833427429,-0.953519880771637,-0.9659463763237,-0.97994464635849,-0.9955658316612244,-1.0042163133621216,-0.993773877620697,-0.9484367966651917,-0.8471941947937012,-0.6662393808364868,-0.38943201303482056,-0.015486701391637325,0.43516987562179565,0.9158297777175903,1.3671685457229614,1.734693169593811,1.9819504022598267,2.097766399383545,2.093719244003296,1.99413001537323,1.8249279260635376,1.6101338863372803,1.3683407306671143,1.1074669361114502,0.829999566078186,0.5448502898216248,0.2685292363166809,0.014720475301146507,-0.2090926617383957,-0.39692577719688416,-0.543526828289032,-0.6458739042282104,-0.7053347229957581,-0.7337842583656311,-0.7502872943878174,-0.7657997608184814,-0.7829195857048035,-0.8011791706085205,-0.8177062273025513,-0.8346317410469055,-0.8548253774642944,-0.8759387731552124,-0.8958339095115662,-0.9122520685195923,-0.9230139851570129,-0.9290178418159485,-0.9337579011917114,-0.9416558146476746,-0.9532010555267334,-0.9592242240905762,-0.9407509565353394,-0.8715049028396606,-0.7247470021247864,-0.48080015182495117,-0.13263127207756042,0.304365336894989,0.7893079519271851,1.2607686519622803,1.654889464378357,1.928847074508667,2.0660805702209473,2.073453903198242,1.976568341255188,1.8101222515106201,1.6012433767318726,1.3614062070846558,1.0978933572769165,0.8211373686790466,0.5428773760795593,0.27422744035720825,0.02686605602502823,-0.18762065470218658,-0.3638538420200348,-0.5017848610877991,-0.6026041507720947,-0.6702238321304321,-0.7142797112464905,-0.7458009719848633,-0.770656168460846,-0.7916110754013062,-0.8080621361732483,-0.8177735805511475,-0.8225976824760437,-0.828040361404419,-0.8400343060493469,-0.8581348657608032,-0.8772596120834351,-0.8956722617149353,-0.9140837788581848,-0.9319193363189697,-0.9471877217292786,-0.9585446119308472,-0.9616091251373291,-0.9423660039901733,-0.8781175017356873,-0.7462238669395447,-0.5290281772613525,-0.21467925608158112,0.19099250435829163,0.6545723080635071,1.1229939460754395,1.5355069637298584,1.8416608572006226,2.020430326461792,2.0782058238983154,2.0360145568847656,1.919006586074829,1.747232437133789,1.5328196287155151,1.2828501462936401,1.0049760341644287,0.7115650773048401,0.41771963238716125,0.14103716611862183,-0.1015021950006485,-0.29948192834854126,-0.4481664299964905,-0.5497433543205261,-0.6133376359939575,-0.6493855118751526,-0.665952205657959,-0.6722202897071838,-0.6804723739624023,-0.6983615756034851,-0.7247008681297302,-0.7535847425460815,-0.7818735241889954,-0.808103621006012,-0.8287972211837769,-0.8434801697731018,-0.8523330092430115,-0.8573684096336365,-0.8642770648002625,-0.8756669759750366,-0.8917675614356995,-0.9086371064186096,-0.9159213304519653,-0.9005403518676758,-0.8438810110092163,-0.720540463924408,-0.5122398734092712,-0.22089457511901855,0.1362840235233307,0.5323085188865662,0.9296218156814575,1.2833534479141235,1.5500928163528442,1.7037994861602783,1.74362313747406,1.6875295639038086,1.5618858337402344,1.3895879983901978,1.1880531311035156,0.968842625617981,0.7371416687965393,0.49981892108917236,0.2674163579940796,0.05348233878612518,-0.1300758570432663,-0.27869683504104614,-0.3912286162376404,-0.4707244336605072,-0.5231336355209351,-0.5535436272621155,-0.5699912309646606,-0.5818306803703308,-0.5924117565155029,-0.600904107093811,-0.6102980971336365,-0.6250936985015869,-0.6475245356559753,-0.6744853854179382,-0.6970163583755493,-0.7132126092910767,-0.7269298434257507,-0.7389580607414246,-0.7523934245109558,-0.7689353823661804,-0.7837921977043152,-0.7916934490203857,-0.7863236665725708,-0.7560580968856812,-0.6835417151451111,-0.547013521194458,-0.324474036693573,-0.003790381597355008,0.40236371755599976,0.8528857827186584,1.287914514541626,1.6472831964492798,1.8901389837265015,2.0002903938293457,1.9864864349365234,1.8749257326126099,1.6934393644332886,1.46427583694458,1.2042378187179565,0.9261268973350525,0.6391143798828125,0.3538649082183838,0.08573786169290543,-0.15135851502418518,-0.34827831387519836,-0.5004079341888428,-0.6074728965759277,-0.672724723815918,-0.7036972045898438,-0.7150395512580872,-0.7238837480545044,-0.7373616695404053,-0.7534119486808777,-0.7707434296607971,-0.7900851368904114,-0.8109941482543945,-0.8315982222557068,-0.8496738076210022,-0.8650544285774231,-0.8808321952819824,-0.900213897228241,-0.9237814545631409,-0.9473579525947571,-0.9632566571235657,-0.9671066403388977,-0.9558576941490173,-0.9154514670372009,-0.8189439177513123,-0.6386441588401794,-0.35741230845451355,0.019405558705329895,0.46380022168159485,0.935651957988739,1.3785439729690552,1.7316515445709229,1.9588775634765625,2.0544941425323486,2.032618761062622,1.9174299240112305,1.7371597290039062,1.5128177404403687,1.2541934251785278,0.9718921184539795,0.681148111820221,0.3991678059101105,0.1402166485786438,-0.08748096972703934,-0.2771443724632263,-0.4241001009941101,-0.5294836759567261,-0.6003462672233582,-0.6469628214836121,-0.680432140827179,-0.7087141871452332,-0.7334173917770386,-0.7544217109680176,-0.7730017304420471,-0.7921746969223022,-0.8157488703727722,-0.8448086380958557,-0.8761948943138123,-0.9051903486251831,-0.9294012784957886,-0.9483753442764282,-0.9628744721412659,-0.973385751247406,-0.9779179692268372,-0.97138512134552,-0.9432346820831299,-0.875630795955658,-0.7453001141548157,-0.5289031267166138,-0.2126498967409134,0.19547036290168762,0.6632997393608093,1.1420255899429321,1.5738470554351807,1.9050915241241455,2.1001768112182617,2.1487174034118652,2.0667433738708496,1.8908028602600098,1.661365270614624,1.405424952507019,1.1346057653427124,0.8529587984085083,0.5640739798545837,0.27638059854507446,0.0061946106143295765,-0.22795727849006653,-0.41639500856399536,-0.5580880641937256,-0.6560387015342712,-0.718538761138916,-0.7549816966056824,-0.7709810733795166,-0.7747921347618103,-0.778181791305542,-0.7885146141052246,-0.8078855276107788,-0.8354743123054504,-0.8687630891799927,-0.9044625759124756,-0.9368772506713867,-0.9582364559173584,-0.9636034965515137,-0.9553301930427551,-0.9404091835021973,-0.9286808371543884,-0.9274668097496033,-0.9306771159172058,-0.9185236692428589,-0.8639417290687561,-0.7362806797027588,-0.5088128447532654,-0.172184020280838,0.2606668770313263,0.7542663812637329,1.251389980316162,1.6874288320541382,2.009040594100952,2.189056158065796,2.229867458343506,2.1511476039886475,1.979893445968628,1.7433531284332275,1.4628942012786865,1.1561875343322754,0.8403647541999817,0.5308129191398621,0.2418205291032791,-0.015040246769785881,-0.23395733535289764,-0.41247040033340454,-0.5516268610954285,-0.6570667624473572,-0.7348369359970093,-0.7894406318664551,-0.825312614440918,-0.8465589284896851,-0.8565027713775635,-0.8595343828201294,-0.8596987128257751,-0.8568860292434692,-0.8511332273483276,-0.84584641456604,-0.8464166522026062,-0.8585183620452881,-0.8810790777206421,-0.9051012396812439,-0.9206998944282532,-0.9252989292144775,-0.9209678769111633,-0.9046393632888794,-0.862120509147644,-0.7667365670204163,-0.593220055103302,-0.33177781105041504,0.006470314227044582,0.39266321063041687,0.7928858995437622,1.1691279411315918,1.480105996131897,1.6966742277145386,1.810477375984192,1.826190710067749,1.7572356462478638,1.6261762380599976,1.453169345855713,1.2474420070648193,1.012914776802063,0.7539277076721191,0.4818996787071228,0.2199379950761795,-0.009100164286792278,-0.19551706314086914,-0.33868855237960815,-0.43995222449302673,-0.504578173160553,-0.5443401336669922,-0.5720174908638,-0.5932450294494629,-0.6100279688835144,-0.6287761926651001,-0.6522727012634277,-0.6744492053985596,-0.6922037601470947,-0.7056531310081482,-0.712120532989502,-0.7144169211387634,-0.7193074822425842,-0.728662371635437,-0.7439979910850525,-0.7666562795639038,-0.7932371497154236,-0.8164178133010864,-0.8280929923057556,-0.8173030018806458,-0.7658156752586365,-0.6551657915115356,-0.4723527431488037,-0.21045160293579102,0.12415768951177597,0.5063186883926392,0.8946060538291931,1.2417298555374146,1.5091770887374878,1.674335241317749,1.7325661182403564,1.6962454319000244,1.58571195602417,1.42318856716156,1.229467749595642,1.0167707204818726,0.7900113463401794,0.555587649345398,0.3230994939804077,0.10329797863960266,-0.09330017864704132,-0.25567516684532166,-0.37539783120155334,-0.4561845660209656,-0.5110325217247009,-0.5494871139526367,-0.5749375224113464,-0.5908540487289429,-0.6029728651046753,-0.6143600940704346,-0.6265980005264282,-0.6421459913253784,-0.66105055809021,-0.6826031804084778,-0.7047182321548462,-0.7211784720420837,-0.726649820804596,-0.7236254215240479,-0.7208033204078674,-0.7233919501304626,-0.7305994033813477,-0.7397357821464539,-0.7480533719062805,-0.7526828050613403,-0.7468682527542114,-0.7151320576667786,-0.6342294812202454,-0.4830394685268402,-0.25256842374801636,0.0529438778758049,0.41740548610687256,0.809214174747467,1.1809284687042236,1.4833347797393799,1.6810970306396484,1.7616665363311768,1.7382704019546509,1.637299656867981,1.483305811882019,1.2952473163604736,1.08489191532135,0.8594895601272583,0.6275336742401123,0.39662352204322815,0.17396552860736847,-0.028903435915708542,-0.2010897994041443,-0.3362310230731964,-0.43123859167099,-0.4896515905857086,-0.5212938189506531,-0.5368180871009827,-0.5474129319190979,-0.5620851516723633,-0.5822027921676636,-0.6049538850784302,-0.6269758343696594,-0.6464192867279053
-0.5756996870040894,-0.24929635226726532,0.14625445008277893,0.5702874660491943,0.9751543998718262,1.31679105758667,1.5606720447540283,1.687761664390564,1.6982959508895874,1.610243797302246,1.4482486248016357,1.230905294418335,0.9743807315826416,0.694949209690094,0.4101109504699707,0.14352360367774963,-0.08466147631406784,-0.2673782408237457,-0.4074164628982544,-0.5141485929489136,-0.5996518731117249,-0.6717303991317749,-0.7371336221694946,-0.8019536733627319,-0.8627074956893921,-0.914029598236084,-0.9584196209907532,-0.9995445013046265,-1.0372018814086914,-1.0663822889328003,-1.0774675607681274,-1.0552047491073608,-0.9762635231018066,-0.8189550638198853,-0.5764660835266113,-0.26055100560188293,0.10057906806468964,0.4683319628238678,0.8012983798980713,1.0639300346374512,1.2357205152511597,1.3118635416030884,1.2989739179611206,1.2115960121154785,1.0664591789245605,0.8784281015396118,0.6615424156188965,0.43352004885673523,0.21545328199863434,0.023534635081887245,-0.13465677201747894,-0.25712791085243225,-0.34533900022506714,-0.4062541127204895,-0.4523904621601105,-0.4969382882118225,-0.5482582449913025,-0.6056945323944092,-0.6630183458328247,-0.7153831124305725,-0.7632156014442444,-0.8104363083839417,-0.8560164570808411,-0.8910819888114929,-0.9019321203231812,-0.8691601753234863,-0.7677847743034363,-0.577813446521759,-0.2979913055896759,0.05129077658057213,0.43289175629615784,0.8004867434501648,1.110676646232605,1.333363652229309,1.4532713890075684,1.4700947999954224,1.3986153602600098,1.2586578130722046,1.0648499727249146,0.8277056217193604,0.5612093806266785,0.2881655693054199,0.03421029448509216,-0.1832582652568817,-0.3576151132583618,-0.4915597438812256,-0.5941492319107056,-0.6720178723335266,-0.7290838956832886,-0.7731330394744873,-0.8110800385475159,-0.8449210524559021,-0.8725592494010925,-0.8896104097366333,-0.8977931141853333,-0.9050429463386536,-0.9158391356468201,-0.9249030947685242,-0.9154455065727234,-0.864446222782135,-0.7462587356567383,-0.535429835319519,-0.21949774026870728,0.19325138628482819,0.6670854091644287,1.1360119581222534,1.528873324394226,1.7981349229812622,1.9274924993515015,1.9245108366012573,1.809879183769226,1.6084431409835815,1.3427159786224365,1.0325794219970703,0.6981084942817688,0.36259403824806213,0.050478845834732056,-0.21828676760196686,-0.4292704164981842,-0.5793320536613464,-0.6785582304000854,-0.7430169582366943,-0.7912493348121643,-0.8358981609344482,-0.8791099190711975,-0.9179145097732544,-0.9480350613594055,-0.971078634262085,-0.9925605654716492,-1.0132371187210083,-1.0334579944610596,-1.0520325899124146,-1.0557678937911987,-1.020358920097351,-0.917171061038971,-0.7185342311859131,-0.4098811745643616,-0.001477496000006795,0.4713253080844879,0.9544612765312195,1.3859610557556152,1.7120270729064941,1.9035332202911377,1.9591623544692993,1.8953081369400024,1.7363121509552002,1.5068418979644775,1.2294450998306274,0.9278857707977295,0.6271651387214661,0.34449049830436707,0.08616737276315689,-0.14138256013393402,-0.3290305435657501,-0.4747917652130127,-0.5884073972702026,-0.6848266124725342,-0.7738732695579529,-0.857556164264679,-0.9343662261962891,-1.002614140510559,-1.0612112283706665,-1.1108101606369019,-1.1520776748657227,-1.1840075254440308,-1.2052921056747437,-1.2095005512237549,-1.1824275255203247,-1.1026495695114136,-0.9427481889724731,-0.6829238533973694,-0.3293398320674896,0.07798893004655838,0.4830039441585541,0.8376516103744507,1.1070436239242554,1.2720162868499756,1.3290297985076904,1.2867697477340698,1.165290117263794,0.9892022013664246,0.7793499231338501,0.5509524345397949,0.3185093402862549,0.09944578260183334,-0.08821439743041992,-0.231925830245018,-0.3313294053077698,-0.39518114924430847,-0.43519356846809387,-0.46433889865875244,-0.49235281348228455,-0.523231029510498,-0.5573068261146545,-0.5927932858467102,-0.6288869976997375,-0.6671662330627441,-0.7074704170227051,-0.7471231818199158,-0.7837868332862854,-0.8101081252098083,-0.8080915212631226,-0.7550209164619446,-0.6267588138580322,-0.4025860130786896,-0.07478536665439606,0.34210672974586487,0.8008684515953064,1.233841061592102,1.579163670539856,1.798786997795105,1.8839976787567139,1.8469070196151733,1.7099024057388306,1.496392846107483,1.228264331817627,0.9281564354896545,0.6176871657371521,0.31887200474739075,0.05280006304383278,-0.16709865629673004,-0.3381621241569519,-0.46667733788490295,-0.5639556050300598,-0.6427843570709229,-0.7118719220161438,-0.773591160774231,-0.830295741558075,-0.8851785659790039,-0.9390994310379028,-0.992300808429718,-1.0445709228515625,-1.0953104496002197,-1.140036940574646,-1.1661118268966675,-1.1535608768463135,-1.0778847932815552,-0.9164669513702393,-0.6559137105941772,-0.3000492453575134,0.12506726384162903,0.5742852687835693,0.9935968518257141,1.3347026109695435,1.5662195682525635,1.6762009859085083,1.6700268983840942,1.564825177192688,1.3804250955581665,1.136305570602417,0.8513767123222351,0.5452925562858582,0.2443728744983673,-0.024538325145840645,-0.24633337557315826,-0.4173767864704132,-0.5413784384727478,-0.6300799250602722,-0.700910210609436,-0.7649948596954346,-0.8264387845993042,-0.8908255696296692,-0.9591176509857178,-1.0244389772415161,-1.0811797380447388,-1.12869393825531,-1.1657686233520508,-1.1856259107589722,-1.174720048904419,-1.113855242729187,-0.9812281131744385,-0.7563951015472412,-0.429533988237381,-0.010968733578920364,0.467714786529541,0.9550747275352478,1.387323021888733,1.7099970579147339,1.8962525129318237,1.9482659101486206,1.8870391845703125,1.7375284433364868,1.5195428133010864,1.2468212842941284,0.9323646426200867,0.5993685722351074,0.27865850925445557,-0.0046536726877093315,-0.23507672548294067,-0.4082067906856537,-0.5325655937194824,-0.6241450309753418,-0.6969630122184753,-0.7590909600257874,-0.8171260952949524,-0.8769289255142212,-0.9382655024528503,-0.9975431561470032,-1.0520707368850708,-1.0990225076675415,-1.1366174221038818,-1.1626737117767334,-1.1653059720993042,-1.1170574426651,-0.9858486652374268,-0.7515711784362793,-0.4124276638031006,0.013261286541819572,0.48565739393234253,0.9503732323646545,1.3501619100570679,1.638414978981018,1.7945722341537476,1.8268342018127441,1.7577399015426636,1.6070468425750732,1.3883627653121948,1.1150388717651367,0.8048073053359985,0.47903576493263245,0.1622399538755417,-0.11897076666355133,-0.346781849861145,-0.5180314183235168,-0.6374088525772095,-0.7148222327232361,-0.7650806903839111,-0.8017125725746155,-0.8332201838493347,-0.865138828754425,-0.8991450071334839,-0.9341137409210205,-0.9716038703918457,-1.0123568773269653,-1.0520434379577637,-1.082475185394287,-1.0874276161193848,-1.0421028137207031,-0.9210386872291565,-0.7033928632736206,-0.3819088339805603,0.027194704860448837,0.4845823645591736,0.9324889779090881,1.3113939762115479,1.5805466175079346,1.7231467962265015,1.7467288970947266,1.673876404762268,1.52335524559021,1.3079719543457031,1.0416125059127808,0.7446486949920654,0.4438396990299225,0.16052640974521637,-0.09055378288030624,-0.29550328850746155,-0.4492190182209015,-0.558397114276886,-0.6373109817504883,-0.701574444770813,-0.7589271664619446,-0.8115045428276062,-0.8621401190757751,-0.9130985140800476,-0.9643452167510986,-1.0140323638916016,-1.0602115392684937,-1.102243423461914,-1.1341259479522705,-1.1382993459701538,-1.0905826091766357,-0.9629795551300049,-0.7304968237876892,-0.3864929676055908,0.05035146698355675,0.5357810258865356,1.0094802379608154,1.4123841524124146,1.6994647979736328,1.8502781391143799,1.8691104650497437,1.774482250213623,1.5883100032806396,1.3290700912475586,1.0162445306777954,0.6761786341667175,0.3384503126144409,0.02891903929412365,-0.2359514981508255,-0.449078232049942,-0.6097536087036133,-0.7232807278633118,-0.7997304201126099,-0.8511682748794556,-0.8901232481002808,-0.9257149696350098,-0.9615687131881714,-0.9975200891494751,-1.0301541090011597,-1.0553427934646606,-1.0724948644638062,-1.0847777128219604,-1.0918031930923462,-1.0775492191314697,-1.0094302892684937,-0.8518340587615967,-0.5819108486175537,-0.20099791884422302,0.26339590549468994,0.7631967663764954,1.2376275062561035,1.628864049911499,1.8975043296813965,2.0261850357055664,2.0200254917144775,1.902079701423645,1.6984723806381226,1.4287493228912354,1.1112940311431885,0.7703640460968018,0.433933824300766,0.12766966223716736,-0.13004635274410248,-0.3325112760066986,-0.4839831590652466,-0.5940153002738953,-0.6760727167129517,-0.746971607208252,-0.8192500472068787,-0.8961463570594788,-0.9736480712890625,-1.045880913734436,-1.1106829643249512,-1.1701054573059082,-1.2256066799163818,-1.2714942693710327,-1.2952790260314941,-1.2782511711120605,-1.1923333406448364,-1.0063860416412354,-0.7023376226425171,-0.2898809015750885,0.19273541867733002,0.6892878413200378,1.1386172771453857,1.491570234298706,1.7225282192230225,1.8274282217025757,1.816379427909851,1.7064473628997803,1.5155166387557983,1.2605466842651367,0.9600443243980408,0.6359586715698242,0.3144501745700836,0.02123146876692772,-0.22703011333942413,-0.42224356532096863,-0.5622071027755737,-0.6555839776992798,-0.7196423411369324,-0.7703530192375183,-0.8179829120635986,-0.8673311471939087,-0.9202597141265869,-0.976696789264679,-1.0331411361694336,-1.0863292217254639,-1.1364126205444336,-1.1783452033996582,-1.1935606002807617,-1.1536126136779785,-1.0290472507476807,-0.8000998497009277,-0.46291330456733704,-0.032763272523880005,0.4515032470226288,0.932924747467041,1.3509979248046875,1.659500241279602,1.840781569480896,1.8995835781097412,1.8503375053405762,1.7110939025878906,1.497918963432312,1.2255725860595703,0.9112495183944702,0.5771619081497192,0.25204628705978394,-0.038489557802677155,-0.27901145815849304,-0.46363627910614014,-0.5975787043571472,-0.6917789578437805,-0.7597927451133728,-0.8161715269088745,-0.8688840270042419,-0.919613778591156,-0.966938316822052
-0.5871771574020386,-0.267812043428421,0.14537031948566437,0.612947940826416,1.0777536630630493,1.4743869304656982,1.7480188608169556,1.8725008964538574,1.8502345085144043,1.7061433792114258,1.4776389598846436,1.199852466583252,0.8981583118438721,0.5876712203025818,0.28004351258277893,-0.009348384104669094,-0.26418885588645935,-0.47181224822998047,-0.6231144666671753,-0.7143316268920898,-0.7542383074760437,-0.7626912593841553,-0.759473443031311,-0.7570494413375854,-0.7605920433998108,-0.7715871334075928,-0.7874767184257507,-0.8009750843048096,-0.8075191378593445,-0.8097358345985413,-0.8121025562286377,-0.8172523975372314,-0.8257287740707397,-0.8372681736946106,-0.8485099077224731,-0.8459625244140625,-0.8053271770477295,-0.6960324645042419,-0.4902176260948181,-0.176565483212471,0.2310793101787567,0.6948204636573792,1.1600276231765747,1.5643813610076904,1.852057695388794,1.990304708480835,1.976485252380371,1.833238124847412,1.5958292484283447,1.2993022203445435,0.9720011353492737,0.6373875141143799,0.31458812952041626,0.017722442746162415,-0.236707404255867,-0.43317005038261414,-0.5696268081665039,-0.6545602083206177,-0.6998388767242432,-0.7193182706832886,-0.725324273109436,-0.7270729541778564,-0.7327587008476257,-0.7457537055015564,-0.7613710165023804,-0.7719358801841736,-0.7742691040039062,-0.7737902402877808,-0.779743492603302,-0.796561598777771,-0.8196769952774048,-0.8356029391288757,-0.8255501985549927,-0.7685188055038452,-0.64028000831604,-0.41647040843963623,-0.08614928275346756,0.33492618799209595,0.8013904094696045,1.248255968093872,1.6129199266433716,1.8542420864105225,1.9573544263839722,1.9268693923950195,1.7811251878738403,1.550163984298706,1.2630906105041504,0.9415696859359741,0.6059080958366394,0.27722203731536865,-0.022019343450665474,-0.2735452353954315,-0.4708985686302185,-0.6176645159721375,-0.7214073538780212,-0.7884353399276733,-0.8274295330047607,-0.8519770503044128,-0.8719492554664612,-0.8908167481422424,-0.9099674820899963,-0.9301294088363647,-0.9505796432495117,-0.9678041934967041,-0.979479968547821,-0.9903814196586609,-1.005059838294983,-1.0202878713607788,-1.0293809175491333,-1.0207949876785278,-0.9752302765846252,-0.8674931526184082,-0.6703254580497742,-0.3698550760746002,0.022720394656062126,0.4761621654033661,0.9430245757102966,1.3615628480911255,1.6736551523208618,1.8459903001785278,1.8751163482666016,1.7802280187606812,1.590101957321167,1.3355252742767334,1.0457755327224731,0.7425335645675659,0.4409535229206085,0.15363018214702606,-0.1079498901963234,-0.330982506275177,-0.5039774179458618,-0.6214854717254639,-0.6876488924026489,-0.7168399095535278,-0.7280145883560181,-0.7372563481330872,-0.7512491941452026,-0.7681270241737366,-0.7843391299247742,-0.7979045510292053,-0.8108466267585754,-0.8283506631851196,-0.8510688543319702,-0.8743852376937866,-0.8933975696563721,-0.9019040465354919,-0.8858685493469238,-0.8194339275360107,-0.6730602383613586,-0.42513197660446167,-0.07121670246124268,0.36754658818244934,0.8447864651679993,1.297973394393921,1.66525137424469,1.9041165113449097,2.0006046295166016,1.9652334451675415,1.82215416431427,1.6016310453414917,1.3310450315475464,1.0300780534744263,0.7148569822311401,0.40019214153289795,0.10129642486572266,-0.16639705002307892,-0.3884493112564087,-0.5561021566390991,-0.6712558269500732,-0.743569016456604,-0.7870718836784363,-0.8166061043739319,-0.8444310426712036,-0.8754072189331055,-0.9062210321426392,-0.9315968751907349,-0.9461888074874878,-0.949726939201355,-0.9482637047767639,-0.9464292526245117,-0.9493487477302551,-0.9603250026702881,-0.9742411375045776,-0.979915201663971,-0.9571909308433533,-0.8763172626495361,-0.7095848321914673,-0.43989500403404236,-0.06452132761478424,0.3964766263961792,0.8958600759506226,1.3635107278823853,1.7273880243301392,1.944289207458496,2.006227970123291,1.9323184490203857,1.757209062576294,1.5134629011154175,1.2248244285583496,0.9097104072570801,0.5866568684577942,0.2745943069458008,-0.010562227107584476,-0.2586710453033447,-0.4647533595561981,-0.6217093467712402,-0.725420355796814,-0.7846163511276245,-0.8137722015380859,-0.8254884481430054,-0.8304567933082581,-0.8359660506248474,-0.8442275524139404,-0.853799045085907,-0.86358642578125,-0.8750908970832825,-0.8895460367202759,-0.906170129776001,-0.9217239618301392,-0.9281319975852966,-0.9124111533164978,-0.8561756014823914,-0.7340499758720398,-0.5220292806625366,-0.20980635285377502,0.1932677924633026,0.6526136994361877,1.1083605289459229,1.4920693635940552,1.7524582147598267,1.8678555488586426,1.84334397315979,1.7049356698989868,1.486243724822998,1.2151498794555664,0.9139975309371948,0.6023346781730652,0.29742661118507385,0.013901706784963608,-0.2354295402765274,-0.43477946519851685,-0.5728372931480408,-0.6546297669410706,-0.6971746683120728,-0.7198322415351868,-0.7369229793548584,-0.7548894286155701,-0.7744665145874023,-0.7935516238212585,-0.8103359937667847,-0.8235609531402588,-0.8333637714385986,-0.8428494334220886,-0.8533185124397278,-0.8626993298530579,-0.8716767430305481,-0.8811761140823364,-0.8838478922843933,-0.862015962600708,-0.7891759872436523,-0.6366628408432007,-0.38641783595085144,-0.0405309684574604,0.38273271918296814,0.8498721122741699,1.3005313873291016,1.664524793624878,1.8946685791015625,1.9722356796264648,1.9058853387832642,1.7230172157287598,1.4561693668365479,1.141401767730713,0.8098443746566772,0.4822535812854767,0.17740638554096222,-0.08935876190662384,-0.3115357756614685,-0.48600298166275024,-0.6113495230674744,-0.6922425627708435,-0.7378184199333191,-0.7587628364562988,-0.7675434947013855,-0.7760646343231201,-0.7911692261695862,-0.8114767670631409,-0.8306878209114075,-0.8442755937576294,-0.8514847755432129,-0.8567165732383728,-0.8664056062698364,-0.8826723098754883,-0.8978260159492493,-0.8923496603965759,-0.8437836766242981,-0.7279874086380005,-0.5181037783622742,-0.20121169090270996,0.2102978527545929,0.6776835322380066,1.1397755146026611,1.5304131507873535,1.7986652851104736,1.9180768728256226,1.8886457681655884,1.7363742589950562,1.4982144832611084,1.2052606344223022,0.8850754499435425,0.5608075261116028,0.24693135917186737,-0.04259752482175827,-0.292551726102829,-0.4918452501296997,-0.635249137878418,-0.7258850336074829,-0.7745673656463623,-0.7955092191696167,-0.8029127717018127,-0.8090778589248657,-0.8206062316894531,-0.8354384303092957,-0.8486587405204773,-0.8570793271064758,-0.8592877388000488,-0.8582499623298645,-0.8584088683128357,-0.8618960380554199,-0.869579553604126,-0.8780100345611572,-0.8716371059417725,-0.8215440511703491,-0.6935596466064453,-0.4609566926956177,-0.11913891136646271,0.30918028950691223,0.7788920998573303,1.2279717922210693,1.59243643283844,1.8281244039535522,1.9204021692276,1.877980351448059,1.725874900817871,1.4984526634216309,1.226120114326477,0.9283324480056763,0.6173800826072693,0.3066016435623169,0.01338283997029066,-0.2455649971961975,-0.4567394554615021,-0.61164391040802,-0.7121258974075317,-0.770530641078949,-0.8018774390220642,-0.8180567026138306,-0.829764187335968,-0.844281792640686,-0.8618453145027161,-0.8784491419792175,-0.8890388607978821,-0.8927126526832581,-0.8932612538337708,-0.8943464159965515,-0.8975693583488464,-0.8998214602470398,-0.8893545269966125,-0.8448934555053711,-0.74088054895401,-0.554011344909668,-0.26662594079971313,0.12165546417236328,0.5802913308143616,1.0525908470153809,1.4706313610076904,1.777252197265625,1.9434683322906494,1.9680196046829224,1.8724699020385742,1.6879340410232544,1.4432060718536377,1.1621652841567993,0.8606391549110413,0.550685465335846,0.24767333269119263,-0.029260283336043358,-0.263029009103775,-0.4457322955131531,-0.5790683627128601,-0.6696867942810059,-0.7257590889930725,-0.7591778635978699,-0.7826297879219055,-0.8031058311462402,-0.824639081954956,-0.8476808071136475,-0.8692610263824463,-0.888642430305481,-0.90740567445755,-0.9287701845169067,-0.9539687037467957,-0.9808034300804138,-1.0079646110534668,-1.0323694944381714,-1.0414048433303833,-1.0093506574630737,-0.9030361771583557,-0.6934235095977783,-0.3700709044933319,0.047060105949640274,0.516128659248352,0.9864246249198914,1.3999028205871582,1.7020078897476196,1.860430121421814,1.8736168146133423,1.7643027305603027,1.562440276145935,1.2957993745803833,0.992432713508606,0.6778997778892517,0.3705800473690033,0.08342751860618591,-0.17310073971748352,-0.38679471611976624,-0.5468948483467102,-0.6526849865913391,-0.7121462821960449,-0.7385963797569275,-0.7501466870307922,-0.7615426778793335,-0.7754515409469604,-0.7894678115844727,-0.8034444451332092,-0.8146487474441528,-0.8204116821289062,-0.8238500952720642,-0.8297133445739746,-0.8386476039886475,-0.8455532193183899,-0.8400534391403198,-0.8039363622665405,-0.7090976238250732,-0.5234900116920471,-0.22606691718101501,0.17797920107841492,0.6499286890029907,1.124497890472412,1.5327481031417847,1.8213281631469727,1.9623494148254395,1.9559712409973145,1.8219624757766724,1.5895930528640747,1.2885628938674927,0.9475471377372742,0.5949536561965942,0.25489944219589233,-0.05118038132786751,-0.30622607469558716,-0.5024095773696899,-0.6397339701652527,-0.7232487797737122,-0.7623819708824158,-0.7699694037437439,-0.7589237093925476,-0.7427018880844116,-0.7326866984367371,-0.7321964502334595,-0.7404507994651794,-0.7547711133956909,-0.7715007066726685,-0.7888187766075134,-0.8044317960739136,-0.8172556757926941,-0.8290291428565979,-0.8392258882522583,-0.8371467590332031,-0.8001422882080078,-0.7010773420333862,-0.5159245133399963,-0.23141326010227203,0.1471412181854248,0.5895666480064392,1.0413146018981934,1.436415672302246,1.7163197994232178,1.847739577293396,1.8294833898544312,1.6857168674468994,1.4513925313949585,1.1598544120788574,0.8384658694267273,0.5079360604286194,0.1860790103673935,-0.10920528322458267,-0.36202627420425415,-0.5611594319343567,-0.7014473080635071
